Segment,Timestamp,BVP
1,2021-11-15 22:59:26.000000,99.67
1,2021-11-15 22:59:26.015625,99.74
1,2021-11-15 22:59:26.031250,99.43
1,2021-11-15 22:59:26.046875,97.86
1,2021-11-15 22:59:26.062500,93.65
1,2021-11-15 22:59:26.078125,85.33
1,2021-11-15 22:59:26.093750,71.65
1,2021-11-15 22:59:26.109375,52.1
1,2021-11-15 22:59:26.125000,26.97
1,2021-11-15 22:59:26.140625,-2.66
1,2021-11-15 22:59:26.156250,-35.36
1,2021-11-15 22:59:26.171875,-69.32
1,2021-11-15 22:59:26.187500,-102.57
1,2021-11-15 22:59:26.203125,-132.98
1,2021-11-15 22:59:26.218750,-158.54
1,2021-11-15 22:59:26.234375,-177.94
1,2021-11-15 22:59:26.250000,-190.99
1,2021-11-15 22:59:26.265625,-198.73
1,2021-11-15 22:59:26.281250,-202.9
1,2021-11-15 22:59:26.296875,-204.88
1,2021-11-15 22:59:26.312500,-204.8
1,2021-11-15 22:59:26.328125,-201.36
1,2021-11-15 22:59:26.343750,-192.57
1,2021-11-15 22:59:26.359375,-177.01
1,2021-11-15 22:59:26.375000,-154.84
1,2021-11-15 22:59:26.390625,-128.05
1,2021-11-15 22:59:26.406250,-99.74
1,2021-11-15 22:59:26.421875,-72.95
1,2021-11-15 22:59:26.437500,-49.8
1,2021-11-15 22:59:26.453125,-31.23
1,2021-11-15 22:59:26.468750,-17.27
1,2021-11-15 22:59:26.484375,-7.44
1,2021-11-15 22:59:26.500000,-0.88
1,2021-11-15 22:59:26.515625,3.6
1,2021-11-15 22:59:26.531250,7.59
1,2021-11-15 22:59:26.546875,12.77
1,2021-11-15 22:59:26.562500,20.28
1,2021-11-15 22:59:26.578125,30.28
1,2021-11-15 22:59:26.593750,41.73
1,2021-11-15 22:59:26.609375,52.75
1,2021-11-15 22:59:26.625000,61.47
1,2021-11-15 22:59:26.640625,66.84
1,2021-11-15 22:59:26.656250,68.9
1,2021-11-15 22:59:26.671875,68.67
1,2021-11-15 22:59:26.687500,67.5
1,2021-11-15 22:59:26.703125,66.39
1,2021-11-15 22:59:26.718750,65.39
1,2021-11-15 22:59:26.734375,63.46
1,2021-11-15 22:59:26.750000,58.74
1,2021-11-15 22:59:26.765625,48.97
1,2021-11-15 22:59:26.781250,32.54
1,2021-11-15 22:59:26.796875,9.09
1,2021-11-15 22:59:26.812500,-19.78
1,2021-11-15 22:59:26.828125,-50.74
1,2021-11-15 22:59:26.843750,-79.55
1,2021-11-15 22:59:26.859375,-102.25
1,2021-11-15 22:59:26.875000,-116.24
1,2021-11-15 22:59:26.890625,-120.93
1,2021-11-15 22:59:26.906250,-117.63
1,2021-11-15 22:59:26.921875,-108.95
1,2021-11-15 22:59:26.937500,-98.02
1,2021-11-15 22:59:26.953125,-87.6
1,2021-11-15 22:59:26.968750,-79.47
1,2021-11-15 22:59:26.984375,-74.02
1,2021-11-15 22:59:27.000000,-70.18
1,2021-11-15 22:59:27.015625,-65.79
1,2021-11-15 22:59:27.031250,-58.48
1,2021-11-15 22:59:27.046875,-46.52
1,2021-11-15 22:59:27.062500,-29.58
1,2021-11-15 22:59:27.078125,-8.88
1,2021-11-15 22:59:27.093750,13.54
1,2021-11-15 22:59:27.109375,35.67
1,2021-11-15 22:59:27.125000,56.29
1,2021-11-15 22:59:27.140625,75.13
1,2021-11-15 22:59:27.156250,92.37
1,2021-11-15 22:59:27.171875,108.0
1,2021-11-15 22:59:27.187500,121.45
1,2021-11-15 22:59:27.203125,131.8
1,2021-11-15 22:59:27.218750,138.18
1,2021-11-15 22:59:27.234375,140.41
1,2021-11-15 22:59:27.250000,139.06
1,2021-11-15 22:59:27.265625,135.23
1,2021-11-15 22:59:27.281250,130.21
1,2021-11-15 22:59:27.296875,125.13
1,2021-11-15 22:59:27.312500,120.99
1,2021-11-15 22:59:27.328125,118.76
1,2021-11-15 22:59:27.343750,119.49
1,2021-11-15 22:59:27.359375,124.07
1,2021-11-15 22:59:27.375000,132.93
1,2021-11-15 22:59:27.390625,145.61
1,2021-11-15 22:59:27.406250,160.66
1,2021-11-15 22:59:27.421875,175.91
1,2021-11-15 22:59:27.437500,189.04
1,2021-11-15 22:59:27.453125,198.21
1,2021-11-15 22:59:27.468750,202.66
1,2021-11-15 22:59:27.484375,202.84
1,2021-11-15 22:59:27.500000,200.34
1,2021-11-15 22:59:27.515625,197.34
1,2021-11-15 22:59:27.531250,195.97
1,2021-11-15 22:59:27.546875,197.48
1,2021-11-15 22:59:27.562500,201.66
1,2021-11-15 22:59:27.578125,206.7
1,2021-11-15 22:59:27.593750,209.77
1,2021-11-15 22:59:27.609375,208.04
1,2021-11-15 22:59:27.625000,199.77
1,2021-11-15 22:59:27.640625,185.03
1,2021-11-15 22:59:27.656250,165.59
1,2021-11-15 22:59:27.671875,144.21
1,2021-11-15 22:59:27.687500,123.41
1,2021-11-15 22:59:27.703125,104.64
1,2021-11-15 22:59:27.718750,87.98
1,2021-11-15 22:59:27.734375,72.42
1,2021-11-15 22:59:27.750000,56.55
1,2021-11-15 22:59:27.765625,38.98
1,2021-11-15 22:59:27.781250,18.72
1,2021-11-15 22:59:27.796875,-4.76
1,2021-11-15 22:59:27.812500,-31.1
1,2021-11-15 22:59:27.828125,-58.69
1,2021-11-15 22:59:27.843750,-84.34
1,2021-11-15 22:59:27.859375,-103.59
1,2021-11-15 22:59:27.875000,-111.97
1,2021-11-15 22:59:27.890625,-106.73
1,2021-11-15 22:59:27.906250,-88.32
1,2021-11-15 22:59:27.921875,-60.69
1,2021-11-15 22:59:27.937500,-30.01
1,2021-11-15 22:59:27.953125,-2.08
1,2021-11-15 22:59:27.968750,19.75
1,2021-11-15 22:59:27.984375,35.36
1,2021-11-15 22:59:28.000000,46.72
1,2021-11-15 22:59:28.015625,55.73
1,2021-11-15 22:59:28.031250,62.32
1,2021-11-15 22:59:28.046875,64.28
1,2021-11-15 22:59:28.062500,58.52
1,2021-11-15 22:59:28.078125,42.77
1,2021-11-15 22:59:28.093750,16.95
1,2021-11-15 22:59:28.109375,-17.04
1,2021-11-15 22:59:28.125000,-56.22
1,2021-11-15 22:59:28.140625,-97.39
1,2021-11-15 22:59:28.156250,-137.33
1,2021-11-15 22:59:28.171875,-172.34
1,2021-11-15 22:59:28.187500,-198.07
1,2021-11-15 22:59:28.203125,-210.04
1,2021-11-15 22:59:28.218750,-205.11
1,2021-11-15 22:59:28.234375,-182.86
1,2021-11-15 22:59:28.250000,-146.23
1,2021-11-15 22:59:28.265625,-100.92
1,2021-11-15 22:59:28.281250,-53.63
1,2021-11-15 22:59:28.296875,-10.24
1,2021-11-15 22:59:28.312500,25.51
1,2021-11-15 22:59:28.328125,52.62
1,2021-11-15 22:59:28.343750,72.29
1,2021-11-15 22:59:28.359375,87.1
1,2021-11-15 22:59:28.375000,99.95
1,2021-11-15 22:59:28.390625,113.04
1,2021-11-15 22:59:28.406250,127.02
1,2021-11-15 22:59:28.421875,140.85
1,2021-11-15 22:59:28.437500,151.83
1,2021-11-15 22:59:28.453125,156.67
1,2021-11-15 22:59:28.468750,152.59
1,2021-11-15 22:59:28.484375,138.31
1,2021-11-15 22:59:28.500000,114.56
1,2021-11-15 22:59:28.515625,83.81
1,2021-11-15 22:59:28.531250,49.44
1,2021-11-15 22:59:28.546875,14.65
1,2021-11-15 22:59:28.562500,-18.46
1,2021-11-15 22:59:28.578125,-49.43
1,2021-11-15 22:59:28.593750,-79.35
1,2021-11-15 22:59:28.609375,-110.15
1,2021-11-15 22:59:28.625000,-143.42
1,2021-11-15 22:59:28.640625,-179.19
1,2021-11-15 22:59:28.656250,-215.36
1,2021-11-15 22:59:28.671875,-248.0
1,2021-11-15 22:59:28.687500,-272.71
1,2021-11-15 22:59:28.703125,-286.44
1,2021-11-15 22:59:28.718750,-288.93
1,2021-11-15 22:59:28.734375,-283.18
1,2021-11-15 22:59:28.750000,-274.49
1,2021-11-15 22:59:28.765625,-268.71
1,2021-11-15 22:59:28.781250,-270.27
1,2021-11-15 22:59:28.796875,-281.12
1,2021-11-15 22:59:28.812500,-300.45
1,2021-11-15 22:59:28.828125,-325.09
1,2021-11-15 22:59:28.843750,-350.34
1,2021-11-15 22:59:28.859375,-370.72
1,2021-11-15 22:59:28.875000,-381.13
1,2021-11-15 22:59:28.890625,-377.92
1,2021-11-15 22:59:28.906250,-360.02
1,2021-11-15 22:59:28.921875,-329.46
1,2021-11-15 22:59:28.937500,-290.77
1,2021-11-15 22:59:28.953125,-249.27
1,2021-11-15 22:59:28.968750,-209.18
1,2021-11-15 22:59:28.984375,-172.38
1,2021-11-15 22:59:29.000000,-138.35
1,2021-11-15 22:59:29.015625,-105.45
1,2021-11-15 22:59:29.031250,-72.39
1,2021-11-15 22:59:29.046875,-39.14
1,2021-11-15 22:59:29.062500,-6.9
1,2021-11-15 22:59:29.078125,22.71
1,2021-11-15 22:59:29.093750,48.32
1,2021-11-15 22:59:29.109375,68.99
1,2021-11-15 22:59:29.125000,83.91
1,2021-11-15 22:59:29.140625,92.28
1,2021-11-15 22:59:29.156250,93.51
1,2021-11-15 22:59:29.171875,87.99
1,2021-11-15 22:59:29.187500,77.48
1,2021-11-15 22:59:29.203125,64.83
1,2021-11-15 22:59:29.218750,52.91
1,2021-11-15 22:59:29.234375,43.17
1,2021-11-15 22:59:29.250000,34.86
1,2021-11-15 22:59:29.265625,25.32
1,2021-11-15 22:59:29.281250,11.6
1,2021-11-15 22:59:29.296875,-7.92
1,2021-11-15 22:59:29.312500,-32.34
1,2021-11-15 22:59:29.328125,-58.5
1,2021-11-15 22:59:29.343750,-82.43
1,2021-11-15 22:59:29.359375,-100.87
1,2021-11-15 22:59:29.375000,-112.48
1,2021-11-15 22:59:29.390625,-117.74
1,2021-11-15 22:59:29.406250,-118.04
1,2021-11-15 22:59:29.421875,-114.54
1,2021-11-15 22:59:29.437500,-107.52
1,2021-11-15 22:59:29.453125,-96.37
1,2021-11-15 22:59:29.468750,-80.11
1,2021-11-15 22:59:29.484375,-58.06
1,2021-11-15 22:59:29.500000,-30.02
1,2021-11-15 22:59:29.515625,3.79
1,2021-11-15 22:59:29.531250,43.13
1,2021-11-15 22:59:29.546875,87.62
1,2021-11-15 22:59:29.562500,136.37
1,2021-11-15 22:59:29.578125,187.38
1,2021-11-15 22:59:29.593750,237.42
1,2021-11-15 22:59:29.609375,282.41
1,2021-11-15 22:59:29.625000,318.58
1,2021-11-15 22:59:29.640625,343.62
1,2021-11-15 22:59:29.656250,357.34
1,2021-11-15 22:59:29.671875,361.6
1,2021-11-15 22:59:29.687500,359.57
1,2021-11-15 22:59:29.703125,354.8
1,2021-11-15 22:59:29.718750,350.32
1,2021-11-15 22:59:29.734375,348.14
1,2021-11-15 22:59:29.750000,348.78
1,2021-11-15 22:59:29.765625,351.1
1,2021-11-15 22:59:29.781250,352.6
1,2021-11-15 22:59:29.796875,349.98
1,2021-11-15 22:59:29.812500,340.13
1,2021-11-15 22:59:29.828125,321.18
1,2021-11-15 22:59:29.843750,293.01
1,2021-11-15 22:59:29.859375,257.1
1,2021-11-15 22:59:29.875000,215.61
1,2021-11-15 22:59:29.890625,170.68
1,2021-11-15 22:59:29.906250,123.77
1,2021-11-15 22:59:29.921875,75.85
1,2021-11-15 22:59:29.937500,27.74
1,2021-11-15 22:59:29.953125,-19.63
1,2021-11-15 22:59:29.968750,-65.5
1,2021-11-15 22:59:29.984375,-109.57
1,2021-11-15 22:59:30.000000,-152.23
1,2021-11-15 22:59:30.015625,-194.21
1,2021-11-15 22:59:30.031250,-235.73
1,2021-11-15 22:59:30.046875,-275.89
1,2021-11-15 22:59:30.062500,-312.77
1,2021-11-15 22:59:30.078125,-344.18
1,2021-11-15 22:59:30.093750,-368.42
1,2021-11-15 22:59:30.109375,-384.73
1,2021-11-15 22:59:30.125000,-392.78
1,2021-11-15 22:59:30.140625,-391.89
1,2021-11-15 22:59:30.156250,-380.66
1,2021-11-15 22:59:30.171875,-357.52
1,2021-11-15 22:59:30.187500,-322.18
1,2021-11-15 22:59:30.203125,-276.81
1,2021-11-15 22:59:30.218750,-226.06
1,2021-11-15 22:59:30.234375,-175.7
1,2021-11-15 22:59:30.250000,-130.59
1,2021-11-15 22:59:30.265625,-93.09
1,2021-11-15 22:59:30.281250,-62.92
1,2021-11-15 22:59:30.296875,-38.21
1,2021-11-15 22:59:30.312500,-17.09
1,2021-11-15 22:59:30.328125,1.49
1,2021-11-15 22:59:30.343750,17.76
1,2021-11-15 22:59:30.359375,31.76
1,2021-11-15 22:59:30.375000,43.69
1,2021-11-15 22:59:30.390625,53.89
1,2021-11-15 22:59:30.406250,62.3
1,2021-11-15 22:59:30.421875,68.28
1,2021-11-15 22:59:30.437500,70.97
1,2021-11-15 22:59:30.453125,70.05
1,2021-11-15 22:59:30.468750,66.24
1,2021-11-15 22:59:30.484375,61.29
1,2021-11-15 22:59:30.500000,57.09
1,2021-11-15 22:59:30.515625,54.85
1,2021-11-15 22:59:30.531250,54.62
1,2021-11-15 22:59:30.546875,55.59
1,2021-11-15 22:59:30.562500,56.62
1,2021-11-15 22:59:30.578125,56.73
1,2021-11-15 22:59:30.593750,55.25
1,2021-11-15 22:59:30.609375,51.51
1,2021-11-15 22:59:30.625000,44.81
1,2021-11-15 22:59:30.640625,34.32
1,2021-11-15 22:59:30.656250,19.5
1,2021-11-15 22:59:30.671875,0.41
1,2021-11-15 22:59:30.687500,-22.18
1,2021-11-15 22:59:30.703125,-46.93
1,2021-11-15 22:59:30.718750,-72.38
1,2021-11-15 22:59:30.734375,-97.07
1,2021-11-15 22:59:30.750000,-119.82
1,2021-11-15 22:59:30.765625,-139.61
1,2021-11-15 22:59:30.781250,-155.73
1,2021-11-15 22:59:30.796875,-167.6
1,2021-11-15 22:59:30.812500,-175.03
1,2021-11-15 22:59:30.828125,-178.45
1,2021-11-15 22:59:30.843750,-179.19
1,2021-11-15 22:59:30.859375,-179.58
1,2021-11-15 22:59:30.875000,-182.52
1,2021-11-15 22:59:30.890625,-190.66
1,2021-11-15 22:59:30.906250,-205.14
1,2021-11-15 22:59:30.921875,-224.92
1,2021-11-15 22:59:30.937500,-246.39
1,2021-11-15 22:59:30.953125,-264.36
1,2021-11-15 22:59:30.968750,-273.52
1,2021-11-15 22:59:30.984375,-270.13
1,2021-11-15 22:59:31.000000,-253.11
1,2021-11-15 22:59:31.015625,-224.15
1,2021-11-15 22:59:31.031250,-186.8
1,2021-11-15 22:59:31.046875,-145.17
1,2021-11-15 22:59:31.062500,-102.81
1,2021-11-15 22:59:31.078125,-62.05
1,2021-11-15 22:59:31.093750,-24.17
1,2021-11-15 22:59:31.109375,10.27
1,2021-11-15 22:59:31.125000,41.3
1,2021-11-15 22:59:31.140625,69.36
1,2021-11-15 22:59:31.156250,95.53
1,2021-11-15 22:59:31.171875,121.13
1,2021-11-15 22:59:31.187500,147.05
1,2021-11-15 22:59:31.203125,172.91
1,2021-11-15 22:59:31.218750,196.67
1,2021-11-15 22:59:31.234375,215.16
1,2021-11-15 22:59:31.250000,225.44
1,2021-11-15 22:59:31.265625,226.33
1,2021-11-15 22:59:31.281250,219.09
1,2021-11-15 22:59:31.296875,207.02
1,2021-11-15 22:59:31.312500,193.98
1,2021-11-15 22:59:31.328125,182.92
1,2021-11-15 22:59:31.343750,175.12
1,2021-11-15 22:59:31.359375,170.45
1,2021-11-15 22:59:31.375000,168.25
1,2021-11-15 22:59:31.390625,167.9
1,2021-11-15 22:59:31.406250,168.81
1,2021-11-15 22:59:31.421875,169.83
1,2021-11-15 22:59:31.437500,168.74
1,2021-11-15 22:59:31.453125,162.48
1,2021-11-15 22:59:31.468750,148.35
1,2021-11-15 22:59:31.484375,125.42
1,2021-11-15 22:59:31.500000,95.37
1,2021-11-15 22:59:31.515625,61.97
1,2021-11-15 22:59:31.531250,29.68
1,2021-11-15 22:59:31.546875,1.85
1,2021-11-15 22:59:31.562500,-20.52
1,2021-11-15 22:59:31.578125,-38.63
1,2021-11-15 22:59:31.593750,-54.93
1,2021-11-15 22:59:31.609375,-71.64
1,2021-11-15 22:59:31.625000,-89.73
1,2021-11-15 22:59:31.640625,-108.66
1,2021-11-15 22:59:31.656250,-126.82
1,2021-11-15 22:59:31.671875,-142.18
1,2021-11-15 22:59:31.687500,-152.84
1,2021-11-15 22:59:31.703125,-157.24
1,2021-11-15 22:59:31.718750,-154.05
1,2021-11-15 22:59:31.734375,-142.37
1,2021-11-15 22:59:31.750000,-122.01
1,2021-11-15 22:59:31.765625,-93.92
1,2021-11-15 22:59:31.781250,-60.28
1,2021-11-15 22:59:31.796875,-24.13
1,2021-11-15 22:59:31.812500,11.34
1,2021-11-15 22:59:31.828125,43.65
1,2021-11-15 22:59:31.843750,71.47
1,2021-11-15 22:59:31.859375,94.68
1,2021-11-15 22:59:31.875000,114.02
1,2021-11-15 22:59:31.890625,130.41
1,2021-11-15 22:59:31.906250,144.42
1,2021-11-15 22:59:31.921875,156.11
1,2021-11-15 22:59:31.937500,165.18
1,2021-11-15 22:59:31.953125,171.3
1,2021-11-15 22:59:31.968750,174.39
1,2021-11-15 22:59:31.984375,174.77
1,2021-11-15 22:59:32.000000,173.07
1,2021-11-15 22:59:32.015625,169.9
1,2021-11-15 22:59:32.031250,165.75
1,2021-11-15 22:59:32.046875,160.95
1,2021-11-15 22:59:32.062500,155.72
1,2021-11-15 22:59:32.078125,150.24
1,2021-11-15 22:59:32.093750,144.66
1,2021-11-15 22:59:32.109375,138.98
1,2021-11-15 22:59:32.125000,132.81
1,2021-11-15 22:59:32.140625,125.42
1,2021-11-15 22:59:32.156250,115.84
1,2021-11-15 22:59:32.171875,103.31
1,2021-11-15 22:59:32.187500,87.69
1,2021-11-15 22:59:32.203125,69.65
1,2021-11-15 22:59:32.218750,50.64
1,2021-11-15 22:59:32.234375,32.3
1,2021-11-15 22:59:32.250000,16.07
1,2021-11-15 22:59:32.265625,2.61
1,2021-11-15 22:59:32.281250,-8.18
1,2021-11-15 22:59:32.296875,-17.05
1,2021-11-15 22:59:32.312500,-25.01
1,2021-11-15 22:59:32.328125,-33.05
1,2021-11-15 22:59:32.343750,-41.76
1,2021-11-15 22:59:32.359375,-51.2
1,2021-11-15 22:59:32.375000,-60.77
1,2021-11-15 22:59:32.390625,-69.24
1,2021-11-15 22:59:32.406250,-74.95
1,2021-11-15 22:59:32.421875,-76.19
1,2021-11-15 22:59:32.437500,-71.78
1,2021-11-15 22:59:32.453125,-61.5
1,2021-11-15 22:59:32.468750,-46.34
1,2021-11-15 22:59:32.484375,-28.19
1,2021-11-15 22:59:32.500000,-9.28
1,2021-11-15 22:59:32.515625,8.54
1,2021-11-15 22:59:32.531250,24.21
1,2021-11-15 22:59:32.546875,37.48
1,2021-11-15 22:59:32.562500,48.57
1,2021-11-15 22:59:32.578125,57.77
1,2021-11-15 22:59:32.593750,65.05
1,2021-11-15 22:59:32.609375,70.06
1,2021-11-15 22:59:32.625000,72.36
1,2021-11-15 22:59:32.640625,71.72
1,2021-11-15 22:59:32.656250,68.34
1,2021-11-15 22:59:32.671875,62.89
1,2021-11-15 22:59:32.687500,56.3
1,2021-11-15 22:59:32.703125,49.45
1,2021-11-15 22:59:32.718750,43.02
1,2021-11-15 22:59:32.734375,37.31
1,2021-11-15 22:59:32.750000,32.36
1,2021-11-15 22:59:32.765625,27.97
1,2021-11-15 22:59:32.781250,23.99
1,2021-11-15 22:59:32.796875,20.31
1,2021-11-15 22:59:32.812500,17.06
1,2021-11-15 22:59:32.828125,14.43
1,2021-11-15 22:59:32.843750,12.6
1,2021-11-15 22:59:32.859375,11.58
1,2021-11-15 22:59:32.875000,11.11
1,2021-11-15 22:59:32.890625,10.73
1,2021-11-15 22:59:32.906250,9.91
1,2021-11-15 22:59:32.921875,8.32
1,2021-11-15 22:59:32.937500,5.94
1,2021-11-15 22:59:32.953125,3.14
1,2021-11-15 22:59:32.968750,0.34
1,2021-11-15 22:59:32.984375,-2.23
1,2021-11-15 22:59:33.000000,-4.75
1,2021-11-15 22:59:33.015625,-7.83
1,2021-11-15 22:59:33.031250,-12.17
1,2021-11-15 22:59:33.046875,-18.36
1,2021-11-15 22:59:33.062500,-26.59
1,2021-11-15 22:59:33.078125,-36.65
1,2021-11-15 22:59:33.093750,-47.87
1,2021-11-15 22:59:33.109375,-59.2
1,2021-11-15 22:59:33.125000,-69.18
1,2021-11-15 22:59:33.140625,-76.05
1,2021-11-15 22:59:33.156250,-78.08
1,2021-11-15 22:59:33.171875,-73.98
1,2021-11-15 22:59:33.187500,-63.55
1,2021-11-15 22:59:33.203125,-47.76
1,2021-11-15 22:59:33.218750,-28.71
1,2021-11-15 22:59:33.234375,-8.89
1,2021-11-15 22:59:33.250000,9.61
1,2021-11-15 22:59:33.265625,25.63
1,2021-11-15 22:59:33.281250,39.05
1,2021-11-15 22:59:33.296875,50.4
1,2021-11-15 22:59:33.312500,60.31
1,2021-11-15 22:59:33.328125,69.04
1,2021-11-15 22:59:33.343750,76.31
1,2021-11-15 22:59:33.359375,81.58
1,2021-11-15 22:59:33.375000,84.35
1,2021-11-15 22:59:33.390625,84.41
1,2021-11-15 22:59:33.406250,81.97
1,2021-11-15 22:59:33.421875,77.51
1,2021-11-15 22:59:33.437500,71.7
1,2021-11-15 22:59:33.453125,65.16
1,2021-11-15 22:59:33.468750,58.46
1,2021-11-15 22:59:33.484375,52.09
1,2021-11-15 22:59:33.500000,46.42
1,2021-11-15 22:59:33.515625,41.71
1,2021-11-15 22:59:33.531250,37.93
1,2021-11-15 22:59:33.546875,34.76
1,2021-11-15 22:59:33.562500,31.53
1,2021-11-15 22:59:33.578125,27.48
1,2021-11-15 22:59:33.593750,21.97
1,2021-11-15 22:59:33.609375,14.76
1,2021-11-15 22:59:33.625000,6.18
1,2021-11-15 22:59:33.640625,-2.97
1,2021-11-15 22:59:33.656250,-11.67
1,2021-11-15 22:59:33.671875,-19.19
1,2021-11-15 22:59:33.687500,-25.29
1,2021-11-15 22:59:33.703125,-30.44
1,2021-11-15 22:59:33.718750,-35.56
1,2021-11-15 22:59:33.734375,-41.62
1,2021-11-15 22:59:33.750000,-49.21
1,2021-11-15 22:59:33.765625,-58.31
1,2021-11-15 22:59:33.781250,-68.36
1,2021-11-15 22:59:33.796875,-78.5
1,2021-11-15 22:59:33.812500,-88.03
1,2021-11-15 22:59:33.828125,-96.64
1,2021-11-15 22:59:33.843750,-104.53
1,2021-11-15 22:59:33.859375,-112.24
1,2021-11-15 22:59:33.875000,-120.36
1,2021-11-15 22:59:33.890625,-129.24
1,2021-11-15 22:59:33.906250,-138.64
1,2021-11-15 22:59:33.921875,-147.86
1,2021-11-15 22:59:33.937500,-155.57
1,2021-11-15 22:59:33.953125,-160.17
1,2021-11-15 22:59:33.968750,-160.01
1,2021-11-15 22:59:33.984375,-153.67
1,2021-11-15 22:59:34.000000,-140.36
1,2021-11-15 22:59:34.015625,-119.99
1,2021-11-15 22:59:34.031250,-93.42
1,2021-11-15 22:59:34.046875,-62.22
1,2021-11-15 22:59:34.062500,-28.48
1,2021-11-15 22:59:34.078125,5.77
1,2021-11-15 22:59:34.093750,39.12
1,2021-11-15 22:59:34.109375,71.04
1,2021-11-15 22:59:34.125000,101.87
1,2021-11-15 22:59:34.140625,132.23
1,2021-11-15 22:59:34.156250,162.42
1,2021-11-15 22:59:34.171875,191.98
1,2021-11-15 22:59:34.187500,219.82
1,2021-11-15 22:59:34.203125,244.97
1,2021-11-15 22:59:34.218750,267.32
1,2021-11-15 22:59:34.234375,287.83
1,2021-11-15 22:59:34.250000,307.67
1,2021-11-15 22:59:34.265625,326.98
1,2021-11-15 22:59:34.281250,344.02
1,2021-11-15 22:59:34.296875,355.63
1,2021-11-15 22:59:34.312500,358.91
1,2021-11-15 22:59:34.328125,352.93
1,2021-11-15 22:59:34.343750,339.53
1,2021-11-15 22:59:34.359375,322.25
1,2021-11-15 22:59:34.375000,304.16
1,2021-11-15 22:59:34.390625,286.0
1,2021-11-15 22:59:34.406250,266.08
1,2021-11-15 22:59:34.421875,241.69
1,2021-11-15 22:59:34.437500,211.64
1,2021-11-15 22:59:34.453125,177.62
1,2021-11-15 22:59:34.468750,143.73
1,2021-11-15 22:59:34.484375,114.51
1,2021-11-15 22:59:34.500000,92.55
1,2021-11-15 22:59:34.515625,77.37
1,2021-11-15 22:59:34.531250,66.16
1,2021-11-15 22:59:34.546875,55.65
1,2021-11-15 22:59:34.562500,43.85
1,2021-11-15 22:59:34.578125,30.73
1,2021-11-15 22:59:34.593750,17.61
1,2021-11-15 22:59:34.609375,5.95
1,2021-11-15 22:59:34.625000,-3.54
1,2021-11-15 22:59:34.640625,-11.19
1,2021-11-15 22:59:34.656250,-17.94
1,2021-11-15 22:59:34.671875,-24.69
1,2021-11-15 22:59:34.687500,-31.75
1,2021-11-15 22:59:34.703125,-39.01
1,2021-11-15 22:59:34.718750,-45.98
1,2021-11-15 22:59:34.734375,-52.35
1,2021-11-15 22:59:34.750000,-58.1
1,2021-11-15 22:59:34.765625,-63.72
1,2021-11-15 22:59:34.781250,-70.24
1,2021-11-15 22:59:34.796875,-79.17
1,2021-11-15 22:59:34.812500,-92.14
1,2021-11-15 22:59:34.828125,-110.09
1,2021-11-15 22:59:34.843750,-132.46
1,2021-11-15 22:59:34.859375,-156.57
1,2021-11-15 22:59:34.875000,-177.93
1,2021-11-15 22:59:34.890625,-191.41
1,2021-11-15 22:59:34.906250,-193.01
1,2021-11-15 22:59:34.921875,-181.38
1,2021-11-15 22:59:34.937500,-158.42
1,2021-11-15 22:59:34.953125,-128.48
1,2021-11-15 22:59:34.968750,-96.76
1,2021-11-15 22:59:34.984375,-67.66
1,2021-11-15 22:59:35.000000,-43.74
1,2021-11-15 22:59:35.015625,-25.77
1,2021-11-15 22:59:35.031250,-13.51
1,2021-11-15 22:59:35.046875,-6.59
1,2021-11-15 22:59:35.062500,-5.01
1,2021-11-15 22:59:35.078125,-8.98
1,2021-11-15 22:59:35.093750,-18.28
1,2021-11-15 22:59:35.109375,-31.65
1,2021-11-15 22:59:35.125000,-46.7
1,2021-11-15 22:59:35.140625,-60.35
1,2021-11-15 22:59:35.156250,-69.77
1,2021-11-15 22:59:35.171875,-73.37
1,2021-11-15 22:59:35.187500,-71.32
1,2021-11-15 22:59:35.203125,-65.4
1,2021-11-15 22:59:35.218750,-58.24
1,2021-11-15 22:59:35.234375,-52.44
1,2021-11-15 22:59:35.250000,-49.93
1,2021-11-15 22:59:35.265625,-51.86
1,2021-11-15 22:59:35.281250,-58.87
1,2021-11-15 22:59:35.296875,-71.18
1,2021-11-15 22:59:35.312500,-88.44
1,2021-11-15 22:59:35.328125,-109.29
1,2021-11-15 22:59:35.343750,-131.01
1,2021-11-15 22:59:35.359375,-149.72
1,2021-11-15 22:59:35.375000,-161.43
1,2021-11-15 22:59:35.390625,-163.48
1,2021-11-15 22:59:35.406250,-155.73
1,2021-11-15 22:59:35.421875,-140.97
1,2021-11-15 22:59:35.437500,-124.11
1,2021-11-15 22:59:35.453125,-110.48
1,2021-11-15 22:59:35.468750,-104.02
1,2021-11-15 22:59:35.484375,-106.24
1,2021-11-15 22:59:35.500000,-115.99
1,2021-11-15 22:59:35.515625,-130.14
1,2021-11-15 22:59:35.531250,-144.58
1,2021-11-15 22:59:35.546875,-155.15
1,2021-11-15 22:59:35.562500,-158.38
1,2021-11-15 22:59:35.578125,-152.13
1,2021-11-15 22:59:35.593750,-135.96
1,2021-11-15 22:59:35.609375,-111.42
1,2021-11-15 22:59:35.625000,-81.74
1,2021-11-15 22:59:35.640625,-51.04
1,2021-11-15 22:59:35.656250,-23.16
1,2021-11-15 22:59:35.671875,-0.51
1,2021-11-15 22:59:35.687500,16.44
1,2021-11-15 22:59:35.703125,28.96
1,2021-11-15 22:59:35.718750,39.19
1,2021-11-15 22:59:35.734375,49.24
1,2021-11-15 22:59:35.750000,60.34
1,2021-11-15 22:59:35.765625,72.61
1,2021-11-15 22:59:35.781250,84.98
1,2021-11-15 22:59:35.796875,95.54
1,2021-11-15 22:59:35.812500,102.02
1,2021-11-15 22:59:35.828125,102.45
1,2021-11-15 22:59:35.843750,95.85
1,2021-11-15 22:59:35.859375,82.62
1,2021-11-15 22:59:35.875000,64.57
1,2021-11-15 22:59:35.890625,44.44
1,2021-11-15 22:59:35.906250,25.19
1,2021-11-15 22:59:35.921875,9.3
1,2021-11-15 22:59:35.937500,-1.62
1,2021-11-15 22:59:35.953125,-6.92
1,2021-11-15 22:59:35.968750,-6.85
1,2021-11-15 22:59:35.984375,-2.38
1,2021-11-15 22:59:36.000000,4.75
1,2021-11-15 22:59:36.015625,12.23
1,2021-11-15 22:59:36.031250,17.64
1,2021-11-15 22:59:36.046875,18.97
1,2021-11-15 22:59:36.062500,15.38
1,2021-11-15 22:59:36.078125,7.5
1,2021-11-15 22:59:36.093750,-2.79
1,2021-11-15 22:59:36.109375,-13.31
1,2021-11-15 22:59:36.125000,-22.69
1,2021-11-15 22:59:36.140625,-31.15
1,2021-11-15 22:59:36.156250,-40.39
1,2021-11-15 22:59:36.171875,-52.7
1,2021-11-15 22:59:36.187500,-69.79
1,2021-11-15 22:59:36.203125,-91.71
1,2021-11-15 22:59:36.218750,-116.79
1,2021-11-15 22:59:36.234375,-142.1
1,2021-11-15 22:59:36.250000,-164.51
1,2021-11-15 22:59:36.265625,-181.36
1,2021-11-15 22:59:36.281250,-190.75
1,2021-11-15 22:59:36.296875,-191.44
1,2021-11-15 22:59:36.312500,-182.67
1,2021-11-15 22:59:36.328125,-164.29
1,2021-11-15 22:59:36.343750,-137.05
1,2021-11-15 22:59:36.359375,-102.91
1,2021-11-15 22:59:36.375000,-64.84
1,2021-11-15 22:59:36.390625,-26.17
1,2021-11-15 22:59:36.406250,10.22
1,2021-11-15 22:59:36.421875,42.65
1,2021-11-15 22:59:36.437500,70.87
1,2021-11-15 22:59:36.453125,95.76
1,2021-11-15 22:59:36.468750,118.63
1,2021-11-15 22:59:36.484375,140.63
1,2021-11-15 22:59:36.500000,162.1
1,2021-11-15 22:59:36.515625,182.36
1,2021-11-15 22:59:36.531250,200.0
1,2021-11-15 22:59:36.546875,213.27
1,2021-11-15 22:59:36.562500,220.8
1,2021-11-15 22:59:36.578125,222.0
1,2021-11-15 22:59:36.593750,217.31
1,2021-11-15 22:59:36.609375,207.96
1,2021-11-15 22:59:36.625000,195.58
1,2021-11-15 22:59:36.640625,181.82
1,2021-11-15 22:59:36.656250,168.06
1,2021-11-15 22:59:36.671875,155.22
1,2021-11-15 22:59:36.687500,143.78
1,2021-11-15 22:59:36.703125,133.7
1,2021-11-15 22:59:36.718750,124.46
1,2021-11-15 22:59:36.734375,115.22
1,2021-11-15 22:59:36.750000,105.14
1,2021-11-15 22:59:36.765625,93.71
1,2021-11-15 22:59:36.781250,80.84
1,2021-11-15 22:59:36.796875,66.86
1,2021-11-15 22:59:36.812500,52.17
1,2021-11-15 22:59:36.828125,36.99
1,2021-11-15 22:59:36.843750,21.29
1,2021-11-15 22:59:36.859375,4.87
1,2021-11-15 22:59:36.875000,-12.26
1,2021-11-15 22:59:36.890625,-29.82
1,2021-11-15 22:59:36.906250,-47.28
1,2021-11-15 22:59:36.921875,-64.17
1,2021-11-15 22:59:36.937500,-80.19
1,2021-11-15 22:59:36.953125,-95.37
1,2021-11-15 22:59:36.968750,-109.97
1,2021-11-15 22:59:36.984375,-124.36
1,2021-11-15 22:59:37.000000,-139.05
1,2021-11-15 22:59:37.015625,-154.67
1,2021-11-15 22:59:37.031250,-171.88
1,2021-11-15 22:59:37.046875,-190.98
1,2021-11-15 22:59:37.062500,-211.49
1,2021-11-15 22:59:37.078125,-231.75
1,2021-11-15 22:59:37.093750,-249.04
1,2021-11-15 22:59:37.109375,-260.29
1,2021-11-15 22:59:37.125000,-263.08
1,2021-11-15 22:59:37.140625,-256.65
1,2021-11-15 22:59:37.156250,-242.19
1,2021-11-15 22:59:37.171875,-222.66
1,2021-11-15 22:59:37.187500,-201.8
1,2021-11-15 22:59:37.203125,-183.23
1,2021-11-15 22:59:37.218750,-169.4
1,2021-11-15 22:59:37.234375,-161.23
1,2021-11-15 22:59:37.250000,-158.06
1,2021-11-15 22:59:37.265625,-157.89
1,2021-11-15 22:59:37.281250,-157.99
1,2021-11-15 22:59:37.296875,-155.51
1,2021-11-15 22:59:37.312500,-148.27
1,2021-11-15 22:59:37.328125,-135.25
1,2021-11-15 22:59:37.343750,-117.08
1,2021-11-15 22:59:37.359375,-95.78
1,2021-11-15 22:59:37.375000,-74.25
1,2021-11-15 22:59:37.390625,-55.37
1,2021-11-15 22:59:37.406250,-41.07
1,2021-11-15 22:59:37.421875,-31.77
1,2021-11-15 22:59:37.437500,-26.15
1,2021-11-15 22:59:37.453125,-21.75
1,2021-11-15 22:59:37.468750,-15.66
1,2021-11-15 22:59:37.484375,-5.71
1,2021-11-15 22:59:37.500000,8.96
1,2021-11-15 22:59:37.515625,27.61
1,2021-11-15 22:59:37.531250,48.07
1,2021-11-15 22:59:37.546875,67.37
1,2021-11-15 22:59:37.562500,82.39
1,2021-11-15 22:59:37.578125,90.74
1,2021-11-15 22:59:37.593750,91.43
1,2021-11-15 22:59:37.609375,85.46
1,2021-11-15 22:59:37.625000,75.72
1,2021-11-15 22:59:37.640625,66.22
1,2021-11-15 22:59:37.656250,60.85
1,2021-11-15 22:59:37.671875,62.07
1,2021-11-15 22:59:37.687500,70.2
1,2021-11-15 22:59:37.703125,83.5
1,2021-11-15 22:59:37.718750,99.11
1,2021-11-15 22:59:37.734375,114.07
1,2021-11-15 22:59:37.750000,126.22
1,2021-11-15 22:59:37.765625,134.46
1,2021-11-15 22:59:37.781250,138.56
1,2021-11-15 22:59:37.796875,138.8
1,2021-11-15 22:59:37.812500,135.75
1,2021-11-15 22:59:37.828125,130.1
1,2021-11-15 22:59:37.843750,122.42
1,2021-11-15 22:59:37.859375,112.84
1,2021-11-15 22:59:37.875000,100.7
1,2021-11-15 22:59:37.890625,84.83
1,2021-11-15 22:59:37.906250,64.2
1,2021-11-15 22:59:37.921875,38.92
1,2021-11-15 22:59:37.937500,11.01
1,2021-11-15 22:59:37.953125,-15.76
1,2021-11-15 22:59:37.968750,-36.85
1,2021-11-15 22:59:37.984375,-48.38
1,2021-11-15 22:59:38.000000,-48.37
1,2021-11-15 22:59:38.015625,-37.23
1,2021-11-15 22:59:38.031250,-17.38
1,2021-11-15 22:59:38.046875,7.37
1,2021-11-15 22:59:38.062500,32.39
1,2021-11-15 22:59:38.078125,52.63
1,2021-11-15 22:59:38.093750,63.02
1,2021-11-15 22:59:38.109375,59.52
1,2021-11-15 22:59:38.125000,40.45
1,2021-11-15 22:59:38.140625,7.7
1,2021-11-15 22:59:38.156250,-32.98
1,2021-11-15 22:59:38.171875,-73.18
1,2021-11-15 22:59:38.187500,-104.32
1,2021-11-15 22:59:38.203125,-120.17
1,2021-11-15 22:59:38.218750,-118.47
1,2021-11-15 22:59:38.234375,-101.03
1,2021-11-15 22:59:38.250000,-72.49
1,2021-11-15 22:59:38.265625,-38.56
1,2021-11-15 22:59:38.281250,-4.56
1,2021-11-15 22:59:38.296875,25.56
1,2021-11-15 22:59:38.312500,49.51
1,2021-11-15 22:59:38.328125,66.65
1,2021-11-15 22:59:38.343750,77.74
1,2021-11-15 22:59:38.359375,84.48
1,2021-11-15 22:59:38.375000,88.69
1,2021-11-15 22:59:38.390625,91.63
1,2021-11-15 22:59:38.406250,93.72
1,2021-11-15 22:59:38.421875,94.71
1,2021-11-15 22:59:38.437500,94.38
1,2021-11-15 22:59:38.453125,93.07
1,2021-11-15 22:59:38.468750,91.61
1,2021-11-15 22:59:38.484375,90.76
1,2021-11-15 22:59:38.500000,90.46
1,2021-11-15 22:59:38.515625,89.45
1,2021-11-15 22:59:38.531250,85.53
1,2021-11-15 22:59:38.546875,76.44
1,2021-11-15 22:59:38.562500,60.76
1,2021-11-15 22:59:38.578125,38.58
1,2021-11-15 22:59:38.593750,11.52
1,2021-11-15 22:59:38.609375,-17.75
1,2021-11-15 22:59:38.625000,-46.09
1,2021-11-15 22:59:38.640625,-70.77
1,2021-11-15 22:59:38.656250,-89.91
1,2021-11-15 22:59:38.671875,-103.08
1,2021-11-15 22:59:38.687500,-111.7
1,2021-11-15 22:59:38.703125,-118.96
1,2021-11-15 22:59:38.718750,-129.25
1,2021-11-15 22:59:38.734375,-146.73
1,2021-11-15 22:59:38.750000,-173.57
1,2021-11-15 22:59:38.765625,-208.49
1,2021-11-15 22:59:38.781250,-246.69
1,2021-11-15 22:59:38.796875,-281.04
1,2021-11-15 22:59:38.812500,-304.44
1,2021-11-15 22:59:38.828125,-312.1
1,2021-11-15 22:59:38.843750,-302.75
1,2021-11-15 22:59:38.859375,-278.43
1,2021-11-15 22:59:38.875000,-243.18
1,2021-11-15 22:59:38.890625,-201.47
1,2021-11-15 22:59:38.906250,-156.97
1,2021-11-15 22:59:38.921875,-112.18
1,2021-11-15 22:59:38.937500,-68.79
1,2021-11-15 22:59:38.953125,-27.98
1,2021-11-15 22:59:38.968750,9.11
1,2021-11-15 22:59:38.984375,41.28
1,2021-11-15 22:59:39.000000,67.21
1,2021-11-15 22:59:39.015625,85.75
1,2021-11-15 22:59:39.031250,96.2
1,2021-11-15 22:59:39.046875,98.63
1,2021-11-15 22:59:39.062500,94.0
1,2021-11-15 22:59:39.078125,83.9
1,2021-11-15 22:59:39.093750,70.25
1,2021-11-15 22:59:39.109375,54.81
1,2021-11-15 22:59:39.125000,39.21
1,2021-11-15 22:59:39.140625,25.13
1,2021-11-15 22:59:39.156250,14.6
1,2021-11-15 22:59:39.171875,10.0
1,2021-11-15 22:59:39.187500,13.23
1,2021-11-15 22:59:39.203125,24.88
1,2021-11-15 22:59:39.218750,43.37
1,2021-11-15 22:59:39.234375,65.14
1,2021-11-15 22:59:39.250000,85.66
1,2021-11-15 22:59:39.265625,101.06
1,2021-11-15 22:59:39.281250,109.4
1,2021-11-15 22:59:39.296875,111.17
1,2021-11-15 22:59:39.312500,108.64
1,2021-11-15 22:59:39.328125,104.31
1,2021-11-15 22:59:39.343750,99.65
1,2021-11-15 22:59:39.359375,94.09
1,2021-11-15 22:59:39.375000,85.59
1,2021-11-15 22:59:39.390625,71.65
1,2021-11-15 22:59:39.406250,50.81
1,2021-11-15 22:59:39.421875,23.55
1,2021-11-15 22:59:39.437500,-7.86
1,2021-11-15 22:59:39.453125,-40.26
1,2021-11-15 22:59:39.468750,-70.97
1,2021-11-15 22:59:39.484375,-98.51
1,2021-11-15 22:59:39.500000,-122.73
1,2021-11-15 22:59:39.515625,-143.84
1,2021-11-15 22:59:39.531250,-161.36
1,2021-11-15 22:59:39.546875,-173.63
1,2021-11-15 22:59:39.562500,-178.09
1,2021-11-15 22:59:39.578125,-172.53
1,2021-11-15 22:59:39.593750,-156.41
1,2021-11-15 22:59:39.609375,-131.62
1,2021-11-15 22:59:39.625000,-102.06
1,2021-11-15 22:59:39.640625,-72.44
1,2021-11-15 22:59:39.656250,-46.45
1,2021-11-15 22:59:39.671875,-25.68
1,2021-11-15 22:59:39.687500,-9.58
1,2021-11-15 22:59:39.703125,3.81
1,2021-11-15 22:59:39.718750,16.34
1,2021-11-15 22:59:39.734375,28.8
1,2021-11-15 22:59:39.750000,40.54
1,2021-11-15 22:59:39.765625,50.1
1,2021-11-15 22:59:39.781250,56.06
1,2021-11-15 22:59:39.796875,57.98
1,2021-11-15 22:59:39.812500,56.67
1,2021-11-15 22:59:39.828125,53.8
1,2021-11-15 22:59:39.843750,51.23
1,2021-11-15 22:59:39.859375,50.21
1,2021-11-15 22:59:39.875000,51.07
1,2021-11-15 22:59:39.890625,53.27
1,2021-11-15 22:59:39.906250,55.89
1,2021-11-15 22:59:39.921875,57.96
1,2021-11-15 22:59:39.937500,58.8
1,2021-11-15 22:59:39.953125,58.06
1,2021-11-15 22:59:39.968750,55.61
1,2021-11-15 22:59:39.984375,51.53
1,2021-11-15 22:59:40.000000,45.85
1,2021-11-15 22:59:40.015625,38.75
1,2021-11-15 22:59:40.031250,30.33
1,2021-11-15 22:59:40.046875,20.73
1,2021-11-15 22:59:40.062500,10.06
1,2021-11-15 22:59:40.078125,-1.61
1,2021-11-15 22:59:40.093750,-14.04
1,2021-11-15 22:59:40.109375,-26.91
1,2021-11-15 22:59:40.125000,-39.75
1,2021-11-15 22:59:40.140625,-52.14
1,2021-11-15 22:59:40.156250,-63.84
1,2021-11-15 22:59:40.171875,-74.87
1,2021-11-15 22:59:40.187500,-85.45
1,2021-11-15 22:59:40.203125,-95.86
1,2021-11-15 22:59:40.218750,-106.32
1,2021-11-15 22:59:40.234375,-116.87
1,2021-11-15 22:59:40.250000,-127.51
1,2021-11-15 22:59:40.265625,-138.11
1,2021-11-15 22:59:40.281250,-148.34
1,2021-11-15 22:59:40.296875,-157.35
1,2021-11-15 22:59:40.312500,-163.68
1,2021-11-15 22:59:40.328125,-165.2
1,2021-11-15 22:59:40.343750,-159.72
1,2021-11-15 22:59:40.359375,-145.75
1,2021-11-15 22:59:40.375000,-123.24
1,2021-11-15 22:59:40.390625,-94.05
1,2021-11-15 22:59:40.406250,-61.57
1,2021-11-15 22:59:40.421875,-29.79
1,2021-11-15 22:59:40.437500,-2.05
1,2021-11-15 22:59:40.453125,19.84
1,2021-11-15 22:59:40.468750,35.94
1,2021-11-15 22:59:40.484375,47.68
1,2021-11-15 22:59:40.500000,57.04
1,2021-11-15 22:59:40.515625,65.66
1,2021-11-15 22:59:40.531250,74.34
1,2021-11-15 22:59:40.546875,83.19
1,2021-11-15 22:59:40.562500,91.96
1,2021-11-15 22:59:40.578125,100.43
1,2021-11-15 22:59:40.593750,108.42
1,2021-11-15 22:59:40.609375,115.74
1,2021-11-15 22:59:40.625000,121.87
1,2021-11-15 22:59:40.640625,126.26
1,2021-11-15 22:59:40.656250,128.68
1,2021-11-15 22:59:40.671875,129.73
1,2021-11-15 22:59:40.687500,130.82
1,2021-11-15 22:59:40.703125,133.71
1,2021-11-15 22:59:40.718750,139.34
1,2021-11-15 22:59:40.734375,147.06
1,2021-11-15 22:59:40.750000,154.59
1,2021-11-15 22:59:40.765625,158.85
1,2021-11-15 22:59:40.781250,157.49
1,2021-11-15 22:59:40.796875,149.92
1,2021-11-15 22:59:40.812500,137.67
1,2021-11-15 22:59:40.828125,123.42
1,2021-11-15 22:59:40.843750,109.69
1,2021-11-15 22:59:40.859375,97.67
1,2021-11-15 22:59:40.875000,86.92
1,2021-11-15 22:59:40.890625,76.1
1,2021-11-15 22:59:40.906250,63.88
1,2021-11-15 22:59:40.921875,49.77
1,2021-11-15 22:59:40.937500,34.23
1,2021-11-15 22:59:40.953125,18.32
1,2021-11-15 22:59:40.968750,2.96
1,2021-11-15 22:59:40.984375,-11.37
1,2021-11-15 22:59:41.000000,-24.69
1,2021-11-15 22:59:41.015625,-37.39
1,2021-11-15 22:59:41.031250,-49.72
1,2021-11-15 22:59:41.046875,-61.84
1,2021-11-15 22:59:41.062500,-73.7
1,2021-11-15 22:59:41.078125,-85.18
1,2021-11-15 22:59:41.093750,-95.92
1,2021-11-15 22:59:41.109375,-105.18
1,2021-11-15 22:59:41.125000,-111.72
1,2021-11-15 22:59:41.140625,-113.88
1,2021-11-15 22:59:41.156250,-110.05
1,2021-11-15 22:59:41.171875,-99.11
1,2021-11-15 22:59:41.187500,-81.08
1,2021-11-15 22:59:41.203125,-57.12
1,2021-11-15 22:59:41.218750,-29.26
1,2021-11-15 22:59:41.234375,0.16
1,2021-11-15 22:59:41.250000,29.06
1,2021-11-15 22:59:41.265625,55.92
1,2021-11-15 22:59:41.281250,79.8
1,2021-11-15 22:59:41.296875,100.15
1,2021-11-15 22:59:41.312500,116.72
1,2021-11-15 22:59:41.328125,129.47
1,2021-11-15 22:59:41.343750,138.76
1,2021-11-15 22:59:41.359375,145.26
1,2021-11-15 22:59:41.375000,149.84
1,2021-11-15 22:59:41.390625,153.32
1,2021-11-15 22:59:41.406250,156.12
1,2021-11-15 22:59:41.421875,158.29
1,2021-11-15 22:59:41.437500,159.64
1,2021-11-15 22:59:41.453125,160.19
1,2021-11-15 22:59:41.468750,160.49
1,2021-11-15 22:59:41.484375,161.77
1,2021-11-15 22:59:41.500000,165.53
1,2021-11-15 22:59:41.515625,172.91
1,2021-11-15 22:59:41.531250,184.03
1,2021-11-15 22:59:41.546875,197.61
1,2021-11-15 22:59:41.562500,211.22
1,2021-11-15 22:59:41.578125,221.93
1,2021-11-15 22:59:41.593750,227.35
1,2021-11-15 22:59:41.609375,226.44
1,2021-11-15 22:59:41.625000,219.98
1,2021-11-15 22:59:41.640625,210.3
1,2021-11-15 22:59:41.656250,200.54
1,2021-11-15 22:59:41.671875,193.61
1,2021-11-15 22:59:41.687500,191.17
1,2021-11-15 22:59:41.703125,193.25
1,2021-11-15 22:59:41.718750,198.06
1,2021-11-15 22:59:41.734375,202.7
1,2021-11-15 22:59:41.750000,203.8
1,2021-11-15 22:59:41.765625,198.52
1,2021-11-15 22:59:41.781250,185.07
1,2021-11-15 22:59:41.796875,163.1
1,2021-11-15 22:59:41.812500,133.67
1,2021-11-15 22:59:41.828125,98.92
1,2021-11-15 22:59:41.843750,61.61
1,2021-11-15 22:59:41.859375,24.27
1,2021-11-15 22:59:41.875000,-11.38
1,2021-11-15 22:59:41.890625,-45.01
1,2021-11-15 22:59:41.906250,-77.65
1,2021-11-15 22:59:41.921875,-111.03
1,2021-11-15 22:59:41.937500,-146.34
1,2021-11-15 22:59:41.953125,-182.93
1,2021-11-15 22:59:41.968750,-217.82
1,2021-11-15 22:59:41.984375,-246.26
1,2021-11-15 22:59:42.000000,-263.6
1,2021-11-15 22:59:42.015625,-267.27
1,2021-11-15 22:59:42.031250,-258.25
1,2021-11-15 22:59:42.046875,-240.82
1,2021-11-15 22:59:42.062500,-220.93
1,2021-11-15 22:59:42.078125,-203.97
1,2021-11-15 22:59:42.093750,-192.92
1,2021-11-15 22:59:42.109375,-187.97
1,2021-11-15 22:59:42.125000,-187.29
1,2021-11-15 22:59:42.140625,-188.64
1,2021-11-15 22:59:42.156250,-190.61
1,2021-11-15 22:59:42.171875,-193.0
1,2021-11-15 22:59:42.187500,-196.35
1,2021-11-15 22:59:42.203125,-201.11
1,2021-11-15 22:59:42.218750,-207.03
1,2021-11-15 22:59:42.234375,-212.99
1,2021-11-15 22:59:42.250000,-217.24
1,2021-11-15 22:59:42.265625,-217.74
1,2021-11-15 22:59:42.281250,-212.55
1,2021-11-15 22:59:42.296875,-200.12
1,2021-11-15 22:59:42.312500,-179.66
1,2021-11-15 22:59:42.328125,-151.36
1,2021-11-15 22:59:42.343750,-116.52
1,2021-11-15 22:59:42.359375,-77.5
1,2021-11-15 22:59:42.375000,-37.33
1,2021-11-15 22:59:42.390625,0.8
1,2021-11-15 22:59:42.406250,34.09
1,2021-11-15 22:59:42.421875,60.42
1,2021-11-15 22:59:42.437500,78.59
1,2021-11-15 22:59:42.453125,88.24
1,2021-11-15 22:59:42.468750,89.73
1,2021-11-15 22:59:42.484375,84.11
1,2021-11-15 22:59:42.500000,72.98
1,2021-11-15 22:59:42.515625,58.36
1,2021-11-15 22:59:42.531250,42.32
1,2021-11-15 22:59:42.546875,26.55
1,2021-11-15 22:59:42.562500,12.05
1,2021-11-15 22:59:42.578125,-0.93
1,2021-11-15 22:59:42.593750,-12.67
1,2021-11-15 22:59:42.609375,-23.46
1,2021-11-15 22:59:42.625000,-33.34
1,2021-11-15 22:59:42.640625,-41.94
1,2021-11-15 22:59:42.656250,-48.82
1,2021-11-15 22:59:42.671875,-53.98
1,2021-11-15 22:59:42.687500,-58.1
1,2021-11-15 22:59:42.703125,-62.6
1,2021-11-15 22:59:42.718750,-69.1
1,2021-11-15 22:59:42.734375,-78.76
1,2021-11-15 22:59:42.750000,-91.57
1,2021-11-15 22:59:42.765625,-106.15
1,2021-11-15 22:59:42.781250,-119.88
1,2021-11-15 22:59:42.796875,-129.51
1,2021-11-15 22:59:42.812500,-132.08
1,2021-11-15 22:59:42.828125,-125.77
1,2021-11-15 22:59:42.843750,-110.59
1,2021-11-15 22:59:42.859375,-88.29
1,2021-11-15 22:59:42.875000,-61.85
1,2021-11-15 22:59:42.890625,-34.48
1,2021-11-15 22:59:42.906250,-8.64
1,2021-11-15 22:59:42.921875,14.58
1,2021-11-15 22:59:42.937500,35.29
1,2021-11-15 22:59:42.953125,54.24
1,2021-11-15 22:59:42.968750,71.98
1,2021-11-15 22:59:42.984375,88.43
1,2021-11-15 22:59:43.000000,102.91
1,2021-11-15 22:59:43.015625,114.66
1,2021-11-15 22:59:43.031250,123.43
1,2021-11-15 22:59:43.046875,129.74
1,2021-11-15 22:59:43.062500,134.75
1,2021-11-15 22:59:43.078125,139.79
1,2021-11-15 22:59:43.093750,145.78
1,2021-11-15 22:59:43.109375,153.01
1,2021-11-15 22:59:43.125000,161.25
1,2021-11-15 22:59:43.140625,169.95
1,2021-11-15 22:59:43.156250,178.57
1,2021-11-15 22:59:43.171875,186.84
1,2021-11-15 22:59:43.187500,194.64
1,2021-11-15 22:59:43.203125,201.87
1,2021-11-15 22:59:43.218750,208.44
1,2021-11-15 22:59:43.234375,214.25
1,2021-11-15 22:59:43.250000,219.51
1,2021-11-15 22:59:43.265625,224.74
1,2021-11-15 22:59:43.281250,230.57
1,2021-11-15 22:59:43.296875,237.18
1,2021-11-15 22:59:43.312500,243.77
1,2021-11-15 22:59:43.328125,248.24
1,2021-11-15 22:59:43.343750,247.34
1,2021-11-15 22:59:43.359375,237.55
1,2021-11-15 22:59:43.375000,216.04
1,2021-11-15 22:59:43.390625,181.56
1,2021-11-15 22:59:43.406250,134.51
1,2021-11-15 22:59:43.421875,76.7
1,2021-11-15 22:59:43.437500,10.83
1,2021-11-15 22:59:43.453125,-59.79
1,2021-11-15 22:59:43.468750,-131.13
1,2021-11-15 22:59:43.484375,-198.45
1,2021-11-15 22:59:43.500000,-256.58
1,2021-11-15 22:59:43.515625,-300.79
1,2021-11-15 22:59:43.531250,-327.91
1,2021-11-15 22:59:43.546875,-337.27
1,2021-11-15 22:59:43.562500,-330.81
1,2021-11-15 22:59:43.578125,-312.39
1,2021-11-15 22:59:43.593750,-286.55
1,2021-11-15 22:59:43.609375,-257.27
1,2021-11-15 22:59:43.625000,-227.22
1,2021-11-15 22:59:43.640625,-197.71
1,2021-11-15 22:59:43.656250,-169.22
1,2021-11-15 22:59:43.671875,-141.86
1,2021-11-15 22:59:43.687500,-115.85
1,2021-11-15 22:59:43.703125,-91.6
1,2021-11-15 22:59:43.718750,-69.59
1,2021-11-15 22:59:43.734375,-50.22
1,2021-11-15 22:59:43.750000,-33.64
1,2021-11-15 22:59:43.765625,-19.72
1,2021-11-15 22:59:43.781250,-8.11
1,2021-11-15 22:59:43.796875,1.56
1,2021-11-15 22:59:43.812500,9.65
1,2021-11-15 22:59:43.828125,16.43
1,2021-11-15 22:59:43.843750,22.3
1,2021-11-15 22:59:43.859375,27.84
1,2021-11-15 22:59:43.875000,33.67
1,2021-11-15 22:59:43.890625,40.46
1,2021-11-15 22:59:43.906250,48.48
1,2021-11-15 22:59:43.921875,57.48
1,2021-11-15 22:59:43.937500,66.7
1,2021-11-15 22:59:43.953125,75.19
1,2021-11-15 22:59:43.968750,82.14
1,2021-11-15 22:59:43.984375,87.16
1,2021-11-15 22:59:44.000000,90.32
1,2021-11-15 22:59:44.015625,91.8
1,2021-11-15 22:59:44.031250,91.75
1,2021-11-15 22:59:44.046875,90.07
1,2021-11-15 22:59:44.062500,86.51
1,2021-11-15 22:59:44.078125,80.88
1,2021-11-15 22:59:44.093750,73.32
1,2021-11-15 22:59:44.109375,64.21
1,2021-11-15 22:59:44.125000,54.15
1,2021-11-15 22:59:44.140625,43.68
1,2021-11-15 22:59:44.156250,33.15
1,2021-11-15 22:59:44.171875,22.77
1,2021-11-15 22:59:44.187500,12.6
1,2021-11-15 22:59:44.203125,2.66
1,2021-11-15 22:59:44.218750,-7.1
1,2021-11-15 22:59:44.234375,-16.81
1,2021-11-15 22:59:44.250000,-26.69
1,2021-11-15 22:59:44.265625,-36.78
1,2021-11-15 22:59:44.281250,-46.61
1,2021-11-15 22:59:44.296875,-55.03
1,2021-11-15 22:59:44.312500,-60.38
1,2021-11-15 22:59:44.328125,-61.02
1,2021-11-15 22:59:44.343750,-56.05
1,2021-11-15 22:59:44.359375,-45.79
1,2021-11-15 22:59:44.375000,-31.74
1,2021-11-15 22:59:44.390625,-16.06
1,2021-11-15 22:59:44.406250,-0.76
1,2021-11-15 22:59:44.421875,12.94
1,2021-11-15 22:59:44.437500,24.78
1,2021-11-15 22:59:44.453125,35.17
1,2021-11-15 22:59:44.468750,44.58
1,2021-11-15 22:59:44.484375,53.12
1,2021-11-15 22:59:44.500000,60.51
1,2021-11-15 22:59:44.515625,66.21
1,2021-11-15 22:59:44.531250,69.83
1,2021-11-15 22:59:44.546875,71.24
1,2021-11-15 22:59:44.562500,70.64
1,2021-11-15 22:59:44.578125,68.25
1,2021-11-15 22:59:44.593750,64.35
1,2021-11-15 22:59:44.609375,59.17
1,2021-11-15 22:59:44.625000,53.03
1,2021-11-15 22:59:44.640625,46.43
1,2021-11-15 22:59:44.656250,40.01
1,2021-11-15 22:59:44.671875,34.41
1,2021-11-15 22:59:44.687500,30.02
1,2021-11-15 22:59:44.703125,26.93
1,2021-11-15 22:59:44.718750,24.79
1,2021-11-15 22:59:44.734375,23.09
1,2021-11-15 22:59:44.750000,21.26
1,2021-11-15 22:59:44.765625,18.86
1,2021-11-15 22:59:44.781250,15.72
1,2021-11-15 22:59:44.796875,11.89
1,2021-11-15 22:59:44.812500,7.62
1,2021-11-15 22:59:44.828125,3.28
1,2021-11-15 22:59:44.843750,-0.79
1,2021-11-15 22:59:44.859375,-4.44
1,2021-11-15 22:59:44.875000,-7.83
1,2021-11-15 22:59:44.890625,-11.35
1,2021-11-15 22:59:44.906250,-15.48
1,2021-11-15 22:59:44.921875,-20.54
1,2021-11-15 22:59:44.937500,-26.51
1,2021-11-15 22:59:44.953125,-32.96
1,2021-11-15 22:59:44.968750,-39.28
1,2021-11-15 22:59:44.984375,-44.94
1,2021-11-15 22:59:45.000000,-49.75
1,2021-11-15 22:59:45.015625,-53.96
1,2021-11-15 22:59:45.031250,-58.16
1,2021-11-15 22:59:45.046875,-63.01
1,2021-11-15 22:59:45.062500,-69.02
1,2021-11-15 22:59:45.078125,-76.33
1,2021-11-15 22:59:45.093750,-84.45
1,2021-11-15 22:59:45.109375,-92.25
1,2021-11-15 22:59:45.125000,-98.09
1,2021-11-15 22:59:45.140625,-100.19
1,2021-11-15 22:59:45.156250,-97.12
1,2021-11-15 22:59:45.171875,-88.38
1,2021-11-15 22:59:45.187500,-74.58
1,2021-11-15 22:59:45.203125,-57.29
1,2021-11-15 22:59:45.218750,-38.55
1,2021-11-15 22:59:45.234375,-20.11
1,2021-11-15 22:59:45.250000,-3.09
1,2021-11-15 22:59:45.265625,12.16
1,2021-11-15 22:59:45.281250,25.72
1,2021-11-15 22:59:45.296875,37.85
1,2021-11-15 22:59:45.312500,48.57
1,2021-11-15 22:59:45.328125,57.69
1,2021-11-15 22:59:45.343750,64.95
1,2021-11-15 22:59:45.359375,70.16
1,2021-11-15 22:59:45.375000,73.31
1,2021-11-15 22:59:45.390625,74.47
1,2021-11-15 22:59:45.406250,73.85
1,2021-11-15 22:59:45.421875,71.66
1,2021-11-15 22:59:45.437500,68.26
1,2021-11-15 22:59:45.453125,64.09
1,2021-11-15 22:59:45.468750,59.74
1,2021-11-15 22:59:45.484375,55.76
1,2021-11-15 22:59:45.500000,52.53
1,2021-11-15 22:59:45.515625,50.16
1,2021-11-15 22:59:45.531250,48.3
1,2021-11-15 22:59:45.546875,46.44
1,2021-11-15 22:59:45.562500,43.99
1,2021-11-15 22:59:45.578125,40.64
1,2021-11-15 22:59:45.593750,36.38
1,2021-11-15 22:59:45.609375,31.52
1,2021-11-15 22:59:45.625000,26.48
1,2021-11-15 22:59:45.640625,21.55
1,2021-11-15 22:59:45.656250,16.78
1,2021-11-15 22:59:45.671875,12.07
1,2021-11-15 22:59:45.687500,7.38
1,2021-11-15 22:59:45.703125,2.75
1,2021-11-15 22:59:45.718750,-1.59
1,2021-11-15 22:59:45.734375,-5.59
1,2021-11-15 22:59:45.750000,-9.41
1,2021-11-15 22:59:45.765625,-13.49
1,2021-11-15 22:59:45.781250,-18.38
1,2021-11-15 22:59:45.796875,-24.38
1,2021-11-15 22:59:45.812500,-31.35
1,2021-11-15 22:59:45.828125,-38.73
1,2021-11-15 22:59:45.843750,-45.82
1,2021-11-15 22:59:45.859375,-52.06
1,2021-11-15 22:59:45.875000,-57.24
1,2021-11-15 22:59:45.890625,-61.53
1,2021-11-15 22:59:45.906250,-65.29
1,2021-11-15 22:59:45.921875,-68.92
1,2021-11-15 22:59:45.937500,-72.78
1,2021-11-15 22:59:45.953125,-77.32
1,2021-11-15 22:59:45.968750,-82.92
1,2021-11-15 22:59:45.984375,-89.85
1,2021-11-15 22:59:46.000000,-97.86
1,2021-11-15 22:59:46.015625,-105.87
1,2021-11-15 22:59:46.031250,-112.03
1,2021-11-15 22:59:46.046875,-114.1
1,2021-11-15 22:59:46.062500,-110.24
1,2021-11-15 22:59:46.078125,-99.77
1,2021-11-15 22:59:46.093750,-83.53
1,2021-11-15 22:59:46.109375,-63.62
1,2021-11-15 22:59:46.125000,-42.66
1,2021-11-15 22:59:46.140625,-22.81
1,2021-11-15 22:59:46.156250,-5.26
1,2021-11-15 22:59:46.171875,9.83
1,2021-11-15 22:59:46.187500,22.99
1,2021-11-15 22:59:46.203125,34.75
1,2021-11-15 22:59:46.218750,45.3
1,2021-11-15 22:59:46.234375,54.46
1,2021-11-15 22:59:46.250000,61.87
1,2021-11-15 22:59:46.265625,67.22
1,2021-11-15 22:59:46.281250,70.49
1,2021-11-15 22:59:46.296875,71.84
1,2021-11-15 22:59:46.312500,71.48
1,2021-11-15 22:59:46.328125,69.67
1,2021-11-15 22:59:46.343750,66.63
1,2021-11-15 22:59:46.359375,62.64
1,2021-11-15 22:59:46.375000,58.08
1,2021-11-15 22:59:46.390625,53.4
1,2021-11-15 22:59:46.406250,49.04
1,2021-11-15 22:59:46.421875,45.34
1,2021-11-15 22:59:46.437500,42.54
1,2021-11-15 22:59:46.453125,40.62
1,2021-11-15 22:59:46.468750,39.33
1,2021-11-15 22:59:46.484375,38.22
1,2021-11-15 22:59:46.500000,36.65
1,2021-11-15 22:59:46.515625,34.11
1,2021-11-15 22:59:46.531250,30.26
1,2021-11-15 22:59:46.546875,25.16
1,2021-11-15 22:59:46.562500,19.27
1,2021-11-15 22:59:46.578125,13.25
1,2021-11-15 22:59:46.593750,7.73
1,2021-11-15 22:59:46.609375,3.09
1,2021-11-15 22:59:46.625000,-0.75
1,2021-11-15 22:59:46.640625,-4.22
1,2021-11-15 22:59:46.656250,-7.97
1,2021-11-15 22:59:46.671875,-12.53
1,2021-11-15 22:59:46.687500,-18.12
1,2021-11-15 22:59:46.703125,-24.56
1,2021-11-15 22:59:46.718750,-31.37
1,2021-11-15 22:59:46.734375,-37.97
1,2021-11-15 22:59:46.750000,-43.89
1,2021-11-15 22:59:46.765625,-49.03
1,2021-11-15 22:59:46.781250,-53.63
1,2021-11-15 22:59:46.796875,-58.15
1,2021-11-15 22:59:46.812500,-63.15
1,2021-11-15 22:59:46.828125,-69.1
1,2021-11-15 22:59:46.843750,-76.25
1,2021-11-15 22:59:46.859375,-84.52
1,2021-11-15 22:59:46.875000,-93.33
1,2021-11-15 22:59:46.890625,-101.48
1,2021-11-15 22:59:46.906250,-107.19
1,2021-11-15 22:59:46.921875,-108.45
1,2021-11-15 22:59:46.937500,-103.67
1,2021-11-15 22:59:46.953125,-92.28
1,2021-11-15 22:59:46.968750,-75.1
1,2021-11-15 22:59:46.984375,-54.18
1,2021-11-15 22:59:47.000000,-32.16
1,2021-11-15 22:59:47.015625,-11.43
1,2021-11-15 22:59:47.031250,6.52
1,2021-11-15 22:59:47.046875,21.29
1,2021-11-15 22:59:47.062500,33.28
1,2021-11-15 22:59:47.078125,43.09
1,2021-11-15 22:59:47.093750,51.14
1,2021-11-15 22:59:47.109375,57.5
1,2021-11-15 22:59:47.125000,62.01
1,2021-11-15 22:59:47.140625,64.57
1,2021-11-15 22:59:47.156250,65.24
1,2021-11-15 22:59:47.171875,64.32
1,2021-11-15 22:59:47.187500,62.2
1,2021-11-15 22:59:47.203125,59.24
1,2021-11-15 22:59:47.218750,55.7
1,2021-11-15 22:59:47.234375,51.78
1,2021-11-15 22:59:47.250000,47.75
1,2021-11-15 22:59:47.265625,43.87
1,2021-11-15 22:59:47.281250,40.53
1,2021-11-15 22:59:47.296875,37.95
1,2021-11-15 22:59:47.312500,36.2
1,2021-11-15 22:59:47.328125,35.03
1,2021-11-15 22:59:47.343750,33.93
1,2021-11-15 22:59:47.359375,32.29
1,2021-11-15 22:59:47.375000,29.6
1,2021-11-15 22:59:47.390625,25.65
1,2021-11-15 22:59:47.406250,20.63
1,2021-11-15 22:59:47.421875,15.06
1,2021-11-15 22:59:47.437500,9.54
1,2021-11-15 22:59:47.453125,4.48
1,2021-11-15 22:59:47.468750,-0.03
1,2021-11-15 22:59:47.484375,-4.29
1,2021-11-15 22:59:47.500000,-8.84
1,2021-11-15 22:59:47.515625,-14.12
1,2021-11-15 22:59:47.531250,-20.25
1,2021-11-15 22:59:47.546875,-26.97
1,2021-11-15 22:59:47.562500,-33.75
1,2021-11-15 22:59:47.578125,-40.09
1,2021-11-15 22:59:47.593750,-45.72
1,2021-11-15 22:59:47.609375,-50.81
1,2021-11-15 22:59:47.625000,-55.83
1,2021-11-15 22:59:47.640625,-61.47
1,2021-11-15 22:59:47.656250,-68.28
1,2021-11-15 22:59:47.671875,-76.53
1,2021-11-15 22:59:47.687500,-85.85
1,2021-11-15 22:59:47.703125,-95.19
1,2021-11-15 22:59:47.718750,-102.8
1,2021-11-15 22:59:47.734375,-106.58
1,2021-11-15 22:59:47.750000,-104.7
1,2021-11-15 22:59:47.765625,-96.24
1,2021-11-15 22:59:47.781250,-81.6
1,2021-11-15 22:59:47.796875,-62.45
1,2021-11-15 22:59:47.812500,-41.18
1,2021-11-15 22:59:47.828125,-20.16
1,2021-11-15 22:59:47.843750,-1.02
1,2021-11-15 22:59:47.859375,15.59
1,2021-11-15 22:59:47.875000,29.76
1,2021-11-15 22:59:47.890625,41.91
1,2021-11-15 22:59:47.906250,52.3
1,2021-11-15 22:59:47.921875,60.95
1,2021-11-15 22:59:47.937500,67.67
1,2021-11-15 22:59:47.953125,72.28
1,2021-11-15 22:59:47.968750,74.82
1,2021-11-15 22:59:47.984375,75.44
1,2021-11-15 22:59:48.000000,74.43
1,2021-11-15 22:59:48.015625,72.03
1,2021-11-15 22:59:48.031250,68.46
1,2021-11-15 22:59:48.046875,64.0
1,2021-11-15 22:59:48.062500,58.99
1,2021-11-15 22:59:48.078125,53.95
1,2021-11-15 22:59:48.093750,49.34
1,2021-11-15 22:59:48.109375,45.57
1,2021-11-15 22:59:48.125000,42.86
1,2021-11-15 22:59:48.140625,41.06
1,2021-11-15 22:59:48.156250,39.78
1,2021-11-15 22:59:48.171875,38.35
1,2021-11-15 22:59:48.187500,36.11
1,2021-11-15 22:59:48.203125,32.59
1,2021-11-15 22:59:48.218750,27.69
1,2021-11-15 22:59:48.234375,21.67
1,2021-11-15 22:59:48.250000,15.11
1,2021-11-15 22:59:48.265625,8.57
1,2021-11-15 22:59:48.281250,2.34
1,2021-11-15 22:59:48.296875,-3.57
1,2021-11-15 22:59:48.312500,-9.47
1,2021-11-15 22:59:48.328125,-15.71
1,2021-11-15 22:59:48.343750,-22.5
1,2021-11-15 22:59:48.359375,-29.75
1,2021-11-15 22:59:48.375000,-37.13
1,2021-11-15 22:59:48.390625,-44.22
1,2021-11-15 22:59:48.406250,-50.71
1,2021-11-15 22:59:48.421875,-56.51
1,2021-11-15 22:59:48.437500,-61.8
1,2021-11-15 22:59:48.453125,-67.03
1,2021-11-15 22:59:48.468750,-72.71
1,2021-11-15 22:59:48.484375,-79.4
1,2021-11-15 22:59:48.500000,-87.46
1,2021-11-15 22:59:48.515625,-96.81
1,2021-11-15 22:59:48.531250,-106.7
1,2021-11-15 22:59:48.546875,-115.6
1,2021-11-15 22:59:48.562500,-121.38
1,2021-11-15 22:59:48.578125,-121.77
1,2021-11-15 22:59:48.593750,-115.16
1,2021-11-15 22:59:48.609375,-101.23
1,2021-11-15 22:59:48.625000,-81.2
1,2021-11-15 22:59:48.640625,-57.53
1,2021-11-15 22:59:48.656250,-33.1
1,2021-11-15 22:59:48.671875,-10.34
1,2021-11-15 22:59:48.687500,9.47
1,2021-11-15 22:59:48.703125,26.23
1,2021-11-15 22:59:48.718750,40.6
1,2021-11-15 22:59:48.734375,53.35
1,2021-11-15 22:59:48.750000,64.85
1,2021-11-15 22:59:48.765625,74.92
1,2021-11-15 22:59:48.781250,83.05
1,2021-11-15 22:59:48.796875,88.74
1,2021-11-15 22:59:48.812500,91.8
1,2021-11-15 22:59:48.828125,92.4
1,2021-11-15 22:59:48.843750,90.98
1,2021-11-15 22:59:48.859375,88.01
1,2021-11-15 22:59:48.875000,83.93
1,2021-11-15 22:59:48.890625,79.12
1,2021-11-15 22:59:48.906250,73.9
1,2021-11-15 22:59:48.921875,68.74
1,2021-11-15 22:59:48.937500,64.1
1,2021-11-15 22:59:48.953125,60.4
1,2021-11-15 22:59:48.968750,57.8
1,2021-11-15 22:59:48.984375,56.13
1,2021-11-15 22:59:49.000000,54.91
1,2021-11-15 22:59:49.015625,53.47
1,2021-11-15 22:59:49.031250,51.23
1,2021-11-15 22:59:49.046875,47.79
1,2021-11-15 22:59:49.062500,43.06
1,2021-11-15 22:59:49.078125,37.26
1,2021-11-15 22:59:49.093750,30.75
1,2021-11-15 22:59:49.109375,24.0
1,2021-11-15 22:59:49.125000,17.42
1,2021-11-15 22:59:49.140625,11.34
1,2021-11-15 22:59:49.156250,5.91
1,2021-11-15 22:59:49.171875,1.07
1,2021-11-15 22:59:49.187500,-3.55
1,2021-11-15 22:59:49.203125,-8.47
1,2021-11-15 22:59:49.218750,-14.23
1,2021-11-15 22:59:49.234375,-21.17
1,2021-11-15 22:59:49.250000,-29.21
1,2021-11-15 22:59:49.265625,-37.87
1,2021-11-15 22:59:49.281250,-46.42
1,2021-11-15 22:59:49.296875,-54.14
1,2021-11-15 22:59:49.312500,-60.63
1,2021-11-15 22:59:49.328125,-65.96
1,2021-11-15 22:59:49.343750,-70.64
1,2021-11-15 22:59:49.359375,-75.48
1,2021-11-15 22:59:49.375000,-81.37
1,2021-11-15 22:59:49.390625,-88.9
1,2021-11-15 22:59:49.406250,-98.16
1,2021-11-15 22:59:49.421875,-108.43
1,2021-11-15 22:59:49.437500,-118.08
1,2021-11-15 22:59:49.453125,-124.82
1,2021-11-15 22:59:49.468750,-126.28
1,2021-11-15 22:59:49.484375,-120.74
1,2021-11-15 22:59:49.500000,-107.79
1,2021-11-15 22:59:49.515625,-88.6
1,2021-11-15 22:59:49.531250,-65.46
1,2021-11-15 22:59:49.546875,-41.1
1,2021-11-15 22:59:49.562500,-17.78
1,2021-11-15 22:59:49.578125,3.15
1,2021-11-15 22:59:49.593750,21.35
1,2021-11-15 22:59:49.609375,37.06
1,2021-11-15 22:59:49.625000,50.71
1,2021-11-15 22:59:49.640625,62.58
1,2021-11-15 22:59:49.656250,72.69
1,2021-11-15 22:59:49.671875,80.97
1,2021-11-15 22:59:49.687500,87.23
1,2021-11-15 22:59:49.703125,91.33
1,2021-11-15 22:59:49.718750,93.21
1,2021-11-15 22:59:49.734375,92.9
1,2021-11-15 22:59:49.750000,90.62
1,2021-11-15 22:59:49.765625,86.78
1,2021-11-15 22:59:49.781250,81.9
1,2021-11-15 22:59:49.796875,76.53
1,2021-11-15 22:59:49.812500,71.26
1,2021-11-15 22:59:49.828125,66.57
1,2021-11-15 22:59:49.843750,62.85
1,2021-11-15 22:59:49.859375,60.29
1,2021-11-15 22:59:49.875000,58.79
1,2021-11-15 22:59:49.890625,57.91
1,2021-11-15 22:59:49.906250,56.97
1,2021-11-15 22:59:49.921875,55.25
1,2021-11-15 22:59:49.937500,52.23
1,2021-11-15 22:59:49.953125,47.85
1,2021-11-15 22:59:49.968750,42.49
1,2021-11-15 22:59:49.984375,36.77
1,2021-11-15 22:59:50.000000,31.29
1,2021-11-15 22:59:50.015625,26.34
1,2021-11-15 22:59:50.031250,21.85
1,2021-11-15 22:59:50.046875,17.48
1,2021-11-15 22:59:50.062500,12.88
1,2021-11-15 22:59:50.078125,7.87
1,2021-11-15 22:59:50.093750,2.49
1,2021-11-15 22:59:50.109375,-3.12
1,2021-11-15 22:59:50.125000,-8.8
1,2021-11-15 22:59:50.140625,-14.55
1,2021-11-15 22:59:50.156250,-20.55
1,2021-11-15 22:59:50.171875,-27.01
1,2021-11-15 22:59:50.187500,-34.05
1,2021-11-15 22:59:50.203125,-41.56
1,2021-11-15 22:59:50.218750,-49.19
1,2021-11-15 22:59:50.234375,-56.48
1,2021-11-15 22:59:50.250000,-63.05
1,2021-11-15 22:59:50.265625,-68.78
1,2021-11-15 22:59:50.281250,-73.82
1,2021-11-15 22:59:50.296875,-78.6
1,2021-11-15 22:59:50.312500,-83.66
1,2021-11-15 22:59:50.328125,-89.61
1,2021-11-15 22:59:50.343750,-96.94
1,2021-11-15 22:59:50.359375,-105.7
1,2021-11-15 22:59:50.375000,-115.25
1,2021-11-15 22:59:50.390625,-124.06
1,2021-11-15 22:59:50.406250,-129.88
1,2021-11-15 22:59:50.421875,-130.21
1,2021-11-15 22:59:50.437500,-123.23
1,2021-11-15 22:59:50.453125,-108.46
1,2021-11-15 22:59:50.468750,-87.2
1,2021-11-15 22:59:50.484375,-62.06
1,2021-11-15 22:59:50.500000,-36.16
1,2021-11-15 22:59:50.515625,-12.07
1,2021-11-15 22:59:50.531250,8.81
1,2021-11-15 22:59:50.546875,26.32
1,2021-11-15 22:59:50.562500,41.07
1,2021-11-15 22:59:50.578125,53.78
1,2021-11-15 22:59:50.593750,64.91
1,2021-11-15 22:59:50.609375,74.4
1,2021-11-15 22:59:50.625000,82.01
1,2021-11-15 22:59:50.640625,87.47
1,2021-11-15 22:59:50.656250,90.69
1,2021-11-15 22:59:50.671875,91.72
1,2021-11-15 22:59:50.687500,90.82
1,2021-11-15 22:59:50.703125,88.3
1,2021-11-15 22:59:50.718750,84.55
1,2021-11-15 22:59:50.734375,80.05
1,2021-11-15 22:59:50.750000,75.31
1,2021-11-15 22:59:50.765625,70.84
1,2021-11-15 22:59:50.781250,67.05
1,2021-11-15 22:59:50.796875,64.19
1,2021-11-15 22:59:50.812500,62.19
1,2021-11-15 22:59:50.828125,60.77
1,2021-11-15 22:59:50.843750,59.41
1,2021-11-15 22:59:50.859375,57.52
1,2021-11-15 22:59:50.875000,54.63
1,2021-11-15 22:59:50.890625,50.51
1,2021-11-15 22:59:50.906250,45.35
1,2021-11-15 22:59:50.921875,39.55
1,2021-11-15 22:59:50.937500,33.65
1,2021-11-15 22:59:50.953125,28.03
1,2021-11-15 22:59:50.968750,22.77
1,2021-11-15 22:59:50.984375,17.69
1,2021-11-15 22:59:51.000000,12.52
1,2021-11-15 22:59:51.015625,7.05
1,2021-11-15 22:59:51.031250,1.21
1,2021-11-15 22:59:51.046875,-4.82
1,2021-11-15 22:59:51.062500,-10.9
1,2021-11-15 22:59:51.078125,-16.92
1,2021-11-15 22:59:51.093750,-22.92
1,2021-11-15 22:59:51.109375,-29.04
1,2021-11-15 22:59:51.125000,-35.42
1,2021-11-15 22:59:51.140625,-42.13
1,2021-11-15 22:59:51.156250,-49.08
1,2021-11-15 22:59:51.171875,-56.1
1,2021-11-15 22:59:51.187500,-62.92
1,2021-11-15 22:59:51.203125,-69.25
1,2021-11-15 22:59:51.218750,-74.92
1,2021-11-15 22:59:51.234375,-79.95
1,2021-11-15 22:59:51.250000,-84.62
1,2021-11-15 22:59:51.265625,-89.49
1,2021-11-15 22:59:51.281250,-95.3
1,2021-11-15 22:59:51.296875,-102.56
1,2021-11-15 22:59:51.312500,-111.2
1,2021-11-15 22:59:51.328125,-120.18
1,2021-11-15 22:59:51.343750,-127.5
1,2021-11-15 22:59:51.359375,-130.65
1,2021-11-15 22:59:51.375000,-127.26
1,2021-11-15 22:59:51.390625,-116.01
1,2021-11-15 22:59:51.406250,-97.04
1,2021-11-15 22:59:51.421875,-72.09
1,2021-11-15 22:59:51.437500,-43.86
1,2021-11-15 22:59:51.453125,-15.41
1,2021-11-15 22:59:51.468750,10.81
1,2021-11-15 22:59:51.484375,33.34
1,2021-11-15 22:59:51.500000,51.78
1,2021-11-15 22:59:51.515625,66.48
1,2021-11-15 22:59:51.531250,78.07
1,2021-11-15 22:59:51.546875,87.1
1,2021-11-15 22:59:51.562500,93.78
1,2021-11-15 22:59:51.578125,98.16
1,2021-11-15 22:59:51.593750,100.21
1,2021-11-15 22:59:51.609375,100.05
1,2021-11-15 22:59:51.625000,97.99
1,2021-11-15 22:59:51.640625,94.4
1,2021-11-15 22:59:51.656250,89.61
1,2021-11-15 22:59:51.671875,83.85
1,2021-11-15 22:59:51.687500,77.26
1,2021-11-15 22:59:51.703125,70.09
1,2021-11-15 22:59:51.718750,62.74
1,2021-11-15 22:59:51.734375,55.7
1,2021-11-15 22:59:51.750000,49.47
1,2021-11-15 22:59:51.765625,44.26
1,2021-11-15 22:59:51.781250,39.88
1,2021-11-15 22:59:51.796875,35.88
1,2021-11-15 22:59:51.812500,31.71
1,2021-11-15 22:59:51.828125,26.97
1,2021-11-15 22:59:51.843750,21.58
1,2021-11-15 22:59:51.859375,15.8
1,2021-11-15 22:59:51.875000,10.05
1,2021-11-15 22:59:51.890625,4.79
1,2021-11-15 22:59:51.906250,0.29
1,2021-11-15 22:59:51.921875,-3.48
1,2021-11-15 22:59:51.937500,-6.8
1,2021-11-15 22:59:51.953125,-10.17
1,2021-11-15 22:59:51.968750,-14.19
1,2021-11-15 22:59:51.984375,-19.25
1,2021-11-15 22:59:52.000000,-25.42
1,2021-11-15 22:59:52.015625,-32.39
1,2021-11-15 22:59:52.031250,-39.52
1,2021-11-15 22:59:52.046875,-46.12
1,2021-11-15 22:59:52.062500,-51.81
1,2021-11-15 22:59:52.078125,-56.63
1,2021-11-15 22:59:52.093750,-61.14
1,2021-11-15 22:59:52.109375,-66.19
1,2021-11-15 22:59:52.125000,-72.6
1,2021-11-15 22:59:52.140625,-80.67
1,2021-11-15 22:59:52.156250,-89.94
1,2021-11-15 22:59:52.171875,-98.97
1,2021-11-15 22:59:52.187500,-105.63
1,2021-11-15 22:59:52.203125,-107.61
1,2021-11-15 22:59:52.218750,-103.1
1,2021-11-15 22:59:52.234375,-91.46
1,2021-11-15 22:59:52.250000,-73.53
1,2021-11-15 22:59:52.265625,-51.46
1,2021-11-15 22:59:52.281250,-28.02
1,2021-11-15 22:59:52.296875,-5.76
1,2021-11-15 22:59:52.312500,13.62
1,2021-11-15 22:59:52.328125,29.53
1,2021-11-15 22:59:52.343750,42.29
1,2021-11-15 22:59:52.359375,52.57
1,2021-11-15 22:59:52.375000,60.93
1,2021-11-15 22:59:52.390625,67.56
1,2021-11-15 22:59:52.406250,72.34
1,2021-11-15 22:59:52.421875,75.08
1,2021-11-15 22:59:52.437500,75.74
1,2021-11-15 22:59:52.453125,74.55
1,2021-11-15 22:59:52.468750,72.03
1,2021-11-15 22:59:52.484375,68.71
1,2021-11-15 22:59:52.500000,65.05
1,2021-11-15 22:59:52.515625,61.27
1,2021-11-15 22:59:52.531250,57.44
1,2021-11-15 22:59:52.546875,53.57
1,2021-11-15 22:59:52.562500,49.75
1,2021-11-15 22:59:52.578125,46.18
1,2021-11-15 22:59:52.593750,43.14
1,2021-11-15 22:59:52.609375,40.76
1,2021-11-15 22:59:52.625000,38.88
1,2021-11-15 22:59:52.640625,36.99
1,2021-11-15 22:59:52.656250,34.35
1,2021-11-15 22:59:52.671875,30.32
1,2021-11-15 22:59:52.687500,24.66
1,2021-11-15 22:59:52.703125,17.7
1,2021-11-15 22:59:52.718750,10.21
1,2021-11-15 22:59:52.734375,3.13
1,2021-11-15 22:59:52.750000,-2.98
1,2021-11-15 22:59:52.765625,-8.08
1,2021-11-15 22:59:52.781250,-12.72
1,2021-11-15 22:59:52.796875,-17.75
1,2021-11-15 22:59:52.812500,-23.84
1,2021-11-15 22:59:52.828125,-31.23
1,2021-11-15 22:59:52.843750,-39.56
1,2021-11-15 22:59:52.859375,-48.14
1,2021-11-15 22:59:52.875000,-56.25
1,2021-11-15 22:59:52.890625,-63.46
1,2021-11-15 22:59:52.906250,-69.73
1,2021-11-15 22:59:52.921875,-75.45
1,2021-11-15 22:59:52.937500,-81.25
1,2021-11-15 22:59:52.953125,-87.89
1,2021-11-15 22:59:52.968750,-95.97
1,2021-11-15 22:59:52.984375,-105.65
1,2021-11-15 22:59:53.000000,-116.35
1,2021-11-15 22:59:53.015625,-126.48
1,2021-11-15 22:59:53.031250,-133.67
1,2021-11-15 22:59:53.046875,-135.35
1,2021-11-15 22:59:53.062500,-129.57
1,2021-11-15 22:59:53.078125,-115.8
1,2021-11-15 22:59:53.093750,-95.23
1,2021-11-15 22:59:53.109375,-70.43
1,2021-11-15 22:59:53.125000,-44.46
1,2021-11-15 22:59:53.140625,-19.94
1,2021-11-15 22:59:53.156250,1.63
1,2021-11-15 22:59:53.171875,20.0
1,2021-11-15 22:59:53.187500,35.67
1,2021-11-15 22:59:53.203125,49.37
1,2021-11-15 22:59:53.218750,61.51
1,2021-11-15 22:59:53.234375,72.14
1,2021-11-15 22:59:53.250000,80.92
1,2021-11-15 22:59:53.265625,87.48
1,2021-11-15 22:59:53.281250,91.57
1,2021-11-15 22:59:53.296875,93.2
1,2021-11-15 22:59:53.312500,92.58
1,2021-11-15 22:59:53.328125,90.03
1,2021-11-15 22:59:53.343750,85.97
1,2021-11-15 22:59:53.359375,80.82
1,2021-11-15 22:59:53.375000,75.09
1,2021-11-15 22:59:53.390625,69.32
1,2021-11-15 22:59:53.406250,64.11
1,2021-11-15 22:59:53.421875,59.93
1,2021-11-15 22:59:53.437500,57.05
1,2021-11-15 22:59:53.453125,55.38
1,2021-11-15 22:59:53.468750,54.49
1,2021-11-15 22:59:53.484375,53.65
1,2021-11-15 22:59:53.500000,52.08
1,2021-11-15 22:59:53.515625,49.03
1,2021-11-15 22:59:53.531250,44.07
1,2021-11-15 22:59:53.546875,37.18
1,2021-11-15 22:59:53.562500,28.86
1,2021-11-15 22:59:53.578125,19.95
1,2021-11-15 22:59:53.593750,11.44
1,2021-11-15 22:59:53.609375,4.02
1,2021-11-15 22:59:53.625000,-2.11
1,2021-11-15 22:59:53.640625,-7.43
1,2021-11-15 22:59:53.656250,-12.82
1,2021-11-15 22:59:53.671875,-19.15
1,2021-11-15 22:59:53.687500,-26.84
1,2021-11-15 22:59:53.703125,-35.63
1,2021-11-15 22:59:53.718750,-44.78
1,2021-11-15 22:59:53.734375,-53.41
1,2021-11-15 22:59:53.750000,-60.94
1,2021-11-15 22:59:53.765625,-67.34
1,2021-11-15 22:59:53.781250,-73.11
1,2021-11-15 22:59:53.796875,-79.0
1,2021-11-15 22:59:53.812500,-85.84
1,2021-11-15 22:59:53.828125,-94.26
1,2021-11-15 22:59:53.843750,-104.58
1,2021-11-15 22:59:53.859375,-116.55
1,2021-11-15 22:59:53.875000,-129.2
1,2021-11-15 22:59:53.890625,-140.68
1,2021-11-15 22:59:53.906250,-148.45
1,2021-11-15 22:59:53.921875,-149.95
1,2021-11-15 22:59:53.937500,-143.39
1,2021-11-15 22:59:53.953125,-128.57
1,2021-11-15 22:59:53.968750,-107.14
1,2021-11-15 22:59:53.984375,-82.24
1,2021-11-15 22:59:54.000000,-57.41
1,2021-11-15 22:59:54.015625,-35.49
1,2021-11-15 22:59:54.031250,-17.84
1,2021-11-15 22:59:54.046875,-4.29
1,2021-11-15 22:59:54.062500,6.32
1,2021-11-15 22:59:54.078125,15.29
1,2021-11-15 22:59:54.093750,23.36
1,2021-11-15 22:59:54.109375,30.4
1,2021-11-15 22:59:54.125000,35.56
1,2021-11-15 22:59:54.140625,37.79
1,2021-11-15 22:59:54.156250,36.32
1,2021-11-15 22:59:54.171875,31.02
1,2021-11-15 22:59:54.187500,22.45
1,2021-11-15 22:59:54.203125,11.66
1,2021-11-15 22:59:54.218750,-0.14
1,2021-11-15 22:59:54.234375,-11.98
1,2021-11-15 22:59:54.250000,-23.41
1,2021-11-15 22:59:54.265625,-34.52
1,2021-11-15 22:59:54.281250,-45.91
1,2021-11-15 22:59:54.296875,-58.25
1,2021-11-15 22:59:54.312500,-72.12
1,2021-11-15 22:59:54.328125,-87.69
1,2021-11-15 22:59:54.343750,-104.65
1,2021-11-15 22:59:54.359375,-122.18
1,2021-11-15 22:59:54.375000,-138.89
1,2021-11-15 22:59:54.390625,-153.07
1,2021-11-15 22:59:54.406250,-162.72
1,2021-11-15 22:59:54.421875,-166.02
1,2021-11-15 22:59:54.437500,-161.53
1,2021-11-15 22:59:54.453125,-148.87
1,2021-11-15 22:59:54.468750,-129.02
1,2021-11-15 22:59:54.484375,-104.23
1,2021-11-15 22:59:54.500000,-77.39
1,2021-11-15 22:59:54.515625,-50.97
1,2021-11-15 22:59:54.531250,-26.05
1,2021-11-15 22:59:54.546875,-2.06
1,2021-11-15 22:59:54.562500,22.64
1,2021-11-15 22:59:54.578125,49.78
1,2021-11-15 22:59:54.593750,80.34
1,2021-11-15 22:59:54.609375,114.11
1,2021-11-15 22:59:54.625000,150.26
1,2021-11-15 22:59:54.640625,188.08
1,2021-11-15 22:59:54.656250,227.67
1,2021-11-15 22:59:54.671875,269.27
1,2021-11-15 22:59:54.687500,311.85
1,2021-11-15 22:59:54.703125,351.8
1,2021-11-15 22:59:54.718750,382.98
1,2021-11-15 22:59:54.734375,398.42
1,2021-11-15 22:59:54.750000,393.22
1,2021-11-15 22:59:54.765625,366.87
1,2021-11-15 22:59:54.781250,323.65
1,2021-11-15 22:59:54.796875,271.03
1,2021-11-15 22:59:54.812500,216.8
1,2021-11-15 22:59:54.828125,166.66
1,2021-11-15 22:59:54.843750,123.42
1,2021-11-15 22:59:54.859375,87.76
1,2021-11-15 22:59:54.875000,59.69
1,2021-11-15 22:59:54.890625,39.46
1,2021-11-15 22:59:54.906250,27.33
1,2021-11-15 22:59:54.921875,22.56
1,2021-11-15 22:59:54.937500,22.87
1,2021-11-15 22:59:54.953125,24.86
1,2021-11-15 22:59:54.968750,25.3
1,2021-11-15 22:59:54.984375,22.67
1,2021-11-15 22:59:55.000000,17.57
1,2021-11-15 22:59:55.015625,11.94
1,2021-11-15 22:59:55.031250,7.77
1,2021-11-15 22:59:55.046875,6.11
1,2021-11-15 22:59:55.062500,6.54
1,2021-11-15 22:59:55.078125,7.59
1,2021-11-15 22:59:55.093750,7.78
1,2021-11-15 22:59:55.109375,6.21
1,2021-11-15 22:59:55.125000,3.02
1,2021-11-15 22:59:55.140625,-0.77
1,2021-11-15 22:59:55.156250,-3.79
1,2021-11-15 22:59:55.171875,-4.85
1,2021-11-15 22:59:55.187500,-3.35
1,2021-11-15 22:59:55.203125,0.4
1,2021-11-15 22:59:55.218750,5.44
1,2021-11-15 22:59:55.234375,10.4
1,2021-11-15 22:59:55.250000,14.07
1,2021-11-15 22:59:55.265625,15.73
1,2021-11-15 22:59:55.281250,15.31
1,2021-11-15 22:59:55.296875,13.27
1,2021-11-15 22:59:55.312500,10.26
1,2021-11-15 22:59:55.328125,6.78
1,2021-11-15 22:59:55.343750,3.05
1,2021-11-15 22:59:55.359375,-1.06
1,2021-11-15 22:59:55.375000,-5.71
1,2021-11-15 22:59:55.390625,-11.0
1,2021-11-15 22:59:55.406250,-16.83
1,2021-11-15 22:59:55.421875,-22.93
1,2021-11-15 22:59:55.437500,-29.1
1,2021-11-15 22:59:55.453125,-35.36
1,2021-11-15 22:59:55.468750,-42.0
1,2021-11-15 22:59:55.484375,-49.44
1,2021-11-15 22:59:55.500000,-58.0
1,2021-11-15 22:59:55.515625,-67.6
1,2021-11-15 22:59:55.531250,-77.83
1,2021-11-15 22:59:55.546875,-87.89
1,2021-11-15 22:59:55.562500,-96.82
1,2021-11-15 22:59:55.578125,-103.59
1,2021-11-15 22:59:55.593750,-107.04
1,2021-11-15 22:59:55.609375,-106.01
1,2021-11-15 22:59:55.625000,-99.49
1,2021-11-15 22:59:55.640625,-87.03
1,2021-11-15 22:59:55.656250,-69.13
1,2021-11-15 22:59:55.671875,-47.35
1,2021-11-15 22:59:55.687500,-23.99
1,2021-11-15 22:59:55.703125,-1.37
1,2021-11-15 22:59:55.718750,18.84
1,2021-11-15 22:59:55.734375,36.01
1,2021-11-15 22:59:55.750000,50.33
1,2021-11-15 22:59:55.765625,62.32
1,2021-11-15 22:59:55.781250,72.23
1,2021-11-15 22:59:55.796875,79.88
1,2021-11-15 22:59:55.812500,84.82
1,2021-11-15 22:59:55.828125,86.72
1,2021-11-15 22:59:55.843750,85.77
1,2021-11-15 22:59:55.859375,82.76
1,2021-11-15 22:59:55.875000,78.89
1,2021-11-15 22:59:55.890625,75.41
1,2021-11-15 22:59:55.906250,73.19
1,2021-11-15 22:59:55.921875,72.45
1,2021-11-15 22:59:55.937500,72.78
1,2021-11-15 22:59:55.953125,73.37
1,2021-11-15 22:59:55.968750,73.37
1,2021-11-15 22:59:55.984375,72.32
1,2021-11-15 22:59:56.000000,70.28
1,2021-11-15 22:59:56.015625,67.83
1,2021-11-15 22:59:56.031250,65.67
1,2021-11-15 22:59:56.046875,64.19
1,2021-11-15 22:59:56.062500,63.29
1,2021-11-15 22:59:56.078125,62.26
1,2021-11-15 22:59:56.093750,60.24
1,2021-11-15 22:59:56.109375,56.39
1,2021-11-15 22:59:56.125000,50.2
1,2021-11-15 22:59:56.140625,41.3
1,2021-11-15 22:59:56.156250,29.36
1,2021-11-15 22:59:56.171875,14.0
1,2021-11-15 22:59:56.187500,-5.07
1,2021-11-15 22:59:56.203125,-27.65
1,2021-11-15 22:59:56.218750,-52.8
1,2021-11-15 22:59:56.234375,-78.89
1,2021-11-15 22:59:56.250000,-104.12
1,2021-11-15 22:59:56.265625,-127.01
1,2021-11-15 22:59:56.281250,-146.67
1,2021-11-15 22:59:56.296875,-162.62
1,2021-11-15 22:59:56.312500,-174.25
1,2021-11-15 22:59:56.328125,-180.4
1,2021-11-15 22:59:56.343750,-179.47
1,2021-11-15 22:59:56.359375,-169.99
1,2021-11-15 22:59:56.375000,-151.42
1,2021-11-15 22:59:56.390625,-124.74
1,2021-11-15 22:59:56.406250,-92.26
1,2021-11-15 22:59:56.421875,-57.03
1,2021-11-15 22:59:56.437500,-21.86
1,2021-11-15 22:59:56.453125,11.32
1,2021-11-15 22:59:56.468750,41.55
1,2021-11-15 22:59:56.484375,68.5
1,2021-11-15 22:59:56.500000,91.95
1,2021-11-15 22:59:56.515625,111.48
1,2021-11-15 22:59:56.531250,126.48
1,2021-11-15 22:59:56.546875,136.48
1,2021-11-15 22:59:56.562500,141.35
1,2021-11-15 22:59:56.578125,141.42
1,2021-11-15 22:59:56.593750,137.37
1,2021-11-15 22:59:56.609375,129.91
1,2021-11-15 22:59:56.625000,119.57
1,2021-11-15 22:59:56.640625,106.51
1,2021-11-15 22:59:56.656250,90.75
1,2021-11-15 22:59:56.671875,72.32
1,2021-11-15 22:59:56.687500,51.71
1,2021-11-15 22:59:56.703125,30.11
1,2021-11-15 22:59:56.718750,9.4
1,2021-11-15 22:59:56.734375,-8.17
1,2021-11-15 22:59:56.750000,-20.61
1,2021-11-15 22:59:56.765625,-26.9
1,2021-11-15 22:59:56.781250,-27.47
1,2021-11-15 22:59:56.796875,-24.19
1,2021-11-15 22:59:56.812500,-19.99
1,2021-11-15 22:59:56.828125,-17.91
1,2021-11-15 22:59:56.843750,-20.35
1,2021-11-15 22:59:56.859375,-28.56
1,2021-11-15 22:59:56.875000,-42.64
1,2021-11-15 22:59:56.890625,-61.84
1,2021-11-15 22:59:56.906250,-84.96
1,2021-11-15 22:59:56.921875,-110.42
1,2021-11-15 22:59:56.937500,-136.23
1,2021-11-15 22:59:56.953125,-160.27
1,2021-11-15 22:59:56.968750,-180.81
1,2021-11-15 22:59:56.984375,-197.22
1,2021-11-15 22:59:57.000000,-210.46
1,2021-11-15 22:59:57.015625,-222.85
1,2021-11-15 22:59:57.031250,-237.12
1,2021-11-15 22:59:57.046875,-254.96
1,2021-11-15 22:59:57.062500,-275.89
1,2021-11-15 22:59:57.078125,-296.97
1,2021-11-15 22:59:57.093750,-313.7
1,2021-11-15 22:59:57.109375,-321.44
1,2021-11-15 22:59:57.125000,-316.95
1,2021-11-15 22:59:57.140625,-299.39
1,2021-11-15 22:59:57.156250,-270.24
1,2021-11-15 22:59:57.171875,-232.62
1,2021-11-15 22:59:57.187500,-190.31
1,2021-11-15 22:59:57.203125,-146.88
1,2021-11-15 22:59:57.218750,-105.05
1,2021-11-15 22:59:57.234375,-66.55
1,2021-11-15 22:59:57.250000,-32.1
1,2021-11-15 22:59:57.265625,-1.65
1,2021-11-15 22:59:57.281250,25.26
1,2021-11-15 22:59:57.296875,49.14
1,2021-11-15 22:59:57.312500,70.33
1,2021-11-15 22:59:57.328125,88.75
1,2021-11-15 22:59:57.343750,104.02
1,2021-11-15 22:59:57.359375,115.58
1,2021-11-15 22:59:57.375000,123.17
1,2021-11-15 22:59:57.390625,127.09
1,2021-11-15 22:59:57.406250,128.32
1,2021-11-15 22:59:57.421875,128.22
1,2021-11-15 22:59:57.437500,128.05
1,2021-11-15 22:59:57.453125,128.48
1,2021-11-15 22:59:57.468750,129.51
1,2021-11-15 22:59:57.484375,130.67
1,2021-11-15 22:59:57.500000,131.61
1,2021-11-15 22:59:57.515625,132.44
1,2021-11-15 22:59:57.531250,133.84
1,2021-11-15 22:59:57.546875,136.77
1,2021-11-15 22:59:57.562500,141.88
1,2021-11-15 22:59:57.578125,149.16
1,2021-11-15 22:59:57.593750,157.75
1,2021-11-15 22:59:57.609375,166.02
1,2021-11-15 22:59:57.625000,171.85
1,2021-11-15 22:59:57.640625,172.91
1,2021-11-15 22:59:57.656250,167.04
1,2021-11-15 22:59:57.671875,152.91
1,2021-11-15 22:59:57.687500,130.75
1,2021-11-15 22:59:57.703125,102.82
1,2021-11-15 22:59:57.718750,73.21
1,2021-11-15 22:59:57.734375,46.72
1,2021-11-15 22:59:57.750000,27.2
1,2021-11-15 22:59:57.765625,15.95
1,2021-11-15 22:59:57.781250,11.23
1,2021-11-15 22:59:57.796875,8.95
1,2021-11-15 22:59:57.812500,4.46
1,2021-11-15 22:59:57.828125,-5.54
1,2021-11-15 22:59:57.843750,-21.83
1,2021-11-15 22:59:57.859375,-42.57
1,2021-11-15 22:59:57.875000,-64.28
1,2021-11-15 22:59:57.890625,-83.09
1,2021-11-15 22:59:57.906250,-95.84
1,2021-11-15 22:59:57.921875,-100.48
1,2021-11-15 22:59:57.937500,-96.03
1,2021-11-15 22:59:57.953125,-82.43
1,2021-11-15 22:59:57.968750,-60.33
1,2021-11-15 22:59:57.984375,-31.2
1,2021-11-15 22:59:58.000000,2.71
1,2021-11-15 22:59:58.015625,38.48
1,2021-11-15 22:59:58.031250,72.98
1,2021-11-15 22:59:58.046875,103.42
1,2021-11-15 22:59:58.062500,127.94
1,2021-11-15 22:59:58.078125,145.92
1,2021-11-15 22:59:58.093750,157.85
1,2021-11-15 22:59:58.109375,165.03
1,2021-11-15 22:59:58.125000,168.87
1,2021-11-15 22:59:58.140625,170.47
1,2021-11-15 22:59:58.156250,170.27
1,2021-11-15 22:59:58.171875,168.17
1,2021-11-15 22:59:58.187500,163.68
1,2021-11-15 22:59:58.203125,156.3
1,2021-11-15 22:59:58.218750,145.78
1,2021-11-15 22:59:58.234375,132.28
1,2021-11-15 22:59:58.250000,116.48
1,2021-11-15 22:59:58.265625,99.66
1,2021-11-15 22:59:58.281250,83.54
1,2021-11-15 22:59:58.296875,69.94
1,2021-11-15 22:59:58.312500,60.02
1,2021-11-15 22:59:58.328125,53.62
1,2021-11-15 22:59:58.343750,48.85
1,2021-11-15 22:59:58.359375,42.49
1,2021-11-15 22:59:58.375000,31.05
1,2021-11-15 22:59:58.390625,12.07
1,2021-11-15 22:59:58.406250,-15.16
1,2021-11-15 22:59:58.421875,-49.66
1,2021-11-15 22:59:58.437500,-89.62
1,2021-11-15 22:59:58.453125,-133.11
1,2021-11-15 22:59:58.468750,-178.26
1,2021-11-15 22:59:58.484375,-222.76
1,2021-11-15 22:59:58.500000,-263.35
1,2021-11-15 22:59:58.515625,-296.09
1,2021-11-15 22:59:58.531250,-317.35
1,2021-11-15 22:59:58.546875,-325.39
1,2021-11-15 22:59:58.562500,-321.03
1,2021-11-15 22:59:58.578125,-307.41
1,2021-11-15 22:59:58.593750,-288.43
1,2021-11-15 22:59:58.609375,-267.37
1,2021-11-15 22:59:58.625000,-246.02
1,2021-11-15 22:59:58.640625,-225.09
1,2021-11-15 22:59:58.656250,-205.04
1,2021-11-15 22:59:58.671875,-186.6
1,2021-11-15 22:59:58.687500,-170.89
1,2021-11-15 22:59:58.703125,-158.55
1,2021-11-15 22:59:58.718750,-149.21
1,2021-11-15 22:59:58.734375,-141.29
1,2021-11-15 22:59:58.750000,-132.57
1,2021-11-15 22:59:58.765625,-120.98
1,2021-11-15 22:59:58.781250,-105.22
1,2021-11-15 22:59:58.796875,-84.92
1,2021-11-15 22:59:58.812500,-60.57
1,2021-11-15 22:59:58.828125,-33.26
1,2021-11-15 22:59:58.843750,-4.42
1,2021-11-15 22:59:58.859375,24.28
1,2021-11-15 22:59:58.875000,51.18
1,2021-11-15 22:59:58.890625,74.69
1,2021-11-15 22:59:58.906250,93.58
1,2021-11-15 22:59:58.921875,107.1
1,2021-11-15 22:59:58.937500,115.02
1,2021-11-15 22:59:58.953125,117.67
1,2021-11-15 22:59:58.968750,115.87
1,2021-11-15 22:59:58.984375,110.83
1,2021-11-15 22:59:59.000000,103.69
1,2021-11-15 22:59:59.015625,95.31
1,2021-11-15 22:59:59.031250,85.84
1,2021-11-15 22:59:59.046875,74.8
1,2021-11-15 22:59:59.062500,61.39
1,2021-11-15 22:59:59.078125,45.17
1,2021-11-15 22:59:59.093750,26.81
1,2021-11-15 22:59:59.109375,8.25
1,2021-11-15 22:59:59.125000,-7.69
1,2021-11-15 22:59:59.140625,-18.65
1,2021-11-15 22:59:59.156250,-23.84
1,2021-11-15 22:59:59.171875,-24.62
1,2021-11-15 22:59:59.187500,-23.97
1,2021-11-15 22:59:59.203125,-25.07
1,2021-11-15 22:59:59.218750,-30.02
1,2021-11-15 22:59:59.234375,-38.92
1,2021-11-15 22:59:59.250000,-50.32
1,2021-11-15 22:59:59.265625,-62.01
1,2021-11-15 22:59:59.281250,-72.19
1,2021-11-15 22:59:59.296875,-79.83
1,2021-11-15 22:59:59.312500,-84.54
1,2021-11-15 22:59:59.328125,-85.78
1,2021-11-15 22:59:59.343750,-82.55
1,2021-11-15 22:59:59.359375,-73.66
1,2021-11-15 22:59:59.375000,-58.42
1,2021-11-15 22:59:59.390625,-37.45
1,2021-11-15 22:59:59.406250,-12.8
1,2021-11-15 22:59:59.421875,12.6
1,2021-11-15 22:59:59.437500,36.03
1,2021-11-15 22:59:59.453125,55.92
1,2021-11-15 22:59:59.468750,72.18
1,2021-11-15 22:59:59.484375,85.91
1,2021-11-15 22:59:59.500000,98.3
1,2021-11-15 22:59:59.515625,109.92
1,2021-11-15 22:59:59.531250,120.24
1,2021-11-15 22:59:59.546875,128.09
1,2021-11-15 22:59:59.562500,132.44
1,2021-11-15 22:59:59.578125,133.16
1,2021-11-15 22:59:59.593750,131.09
1,2021-11-15 22:59:59.609375,127.64
1,2021-11-15 22:59:59.625000,124.12
1,2021-11-15 22:59:59.640625,121.14
1,2021-11-15 22:59:59.656250,118.75
1,2021-11-15 22:59:59.671875,116.63
1,2021-11-15 22:59:59.687500,114.55
1,2021-11-15 22:59:59.703125,112.46
1,2021-11-15 22:59:59.718750,110.48
1,2021-11-15 22:59:59.734375,108.6
1,2021-11-15 22:59:59.750000,106.61
1,2021-11-15 22:59:59.765625,104.18
1,2021-11-15 22:59:59.781250,100.9
1,2021-11-15 22:59:59.796875,96.54
1,2021-11-15 22:59:59.812500,90.86
1,2021-11-15 22:59:59.828125,83.64
1,2021-11-15 22:59:59.843750,74.68
1,2021-11-15 22:59:59.859375,63.92
1,2021-11-15 22:59:59.875000,51.53
1,2021-11-15 22:59:59.890625,37.85
1,2021-11-15 22:59:59.906250,23.28
1,2021-11-15 22:59:59.921875,8.02
1,2021-11-15 22:59:59.937500,-7.89
1,2021-11-15 22:59:59.953125,-24.59
1,2021-11-15 22:59:59.968750,-42.13
1,2021-11-15 22:59:59.984375,-60.39
1,2021-11-15 23:00:00.000000,-79.08
1,2021-11-15 23:00:00.015625,-97.87
1,2021-11-15 23:00:00.031250,-116.45
1,2021-11-15 23:00:00.046875,-134.32
1,2021-11-15 23:00:00.062500,-150.56
1,2021-11-15 23:00:00.078125,-163.67
1,2021-11-15 23:00:00.093750,-171.79
1,2021-11-15 23:00:00.109375,-173.27
1,2021-11-15 23:00:00.125000,-167.36
1,2021-11-15 23:00:00.140625,-154.62
1,2021-11-15 23:00:00.156250,-136.82
1,2021-11-15 23:00:00.171875,-116.26
1,2021-11-15 23:00:00.187500,-95.0
1,2021-11-15 23:00:00.203125,-74.27
1,2021-11-15 23:00:00.218750,-54.38
1,2021-11-15 23:00:00.234375,-35.24
1,2021-11-15 23:00:00.250000,-16.91
1,2021-11-15 23:00:00.265625,-0.15
1,2021-11-15 23:00:00.281250,13.61
1,2021-11-15 23:00:00.296875,22.72
1,2021-11-15 23:00:00.312500,25.92
1,2021-11-15 23:00:00.328125,23.06
1,2021-11-15 23:00:00.343750,15.27
1,2021-11-15 23:00:00.359375,4.79
1,2021-11-15 23:00:00.375000,-5.56
1,2021-11-15 23:00:00.390625,-13.21
1,2021-11-15 23:00:00.406250,-16.49
1,2021-11-15 23:00:00.421875,-15.05
1,2021-11-15 23:00:00.437500,-9.74
1,2021-11-15 23:00:00.453125,-2.25
1,2021-11-15 23:00:00.468750,5.56
1,2021-11-15 23:00:00.484375,12.12
1,2021-11-15 23:00:00.500000,16.46
1,2021-11-15 23:00:00.515625,18.23
1,2021-11-15 23:00:00.531250,17.48
1,2021-11-15 23:00:00.546875,14.53
1,2021-11-15 23:00:00.562500,9.79
1,2021-11-15 23:00:00.578125,3.77
1,2021-11-15 23:00:00.593750,-2.88
1,2021-11-15 23:00:00.609375,-9.44
1,2021-11-15 23:00:00.625000,-15.18
1,2021-11-15 23:00:00.640625,-19.67
1,2021-11-15 23:00:00.656250,-22.85
1,2021-11-15 23:00:00.671875,-25.16
1,2021-11-15 23:00:00.687500,-27.35
1,2021-11-15 23:00:00.703125,-30.2
1,2021-11-15 23:00:00.718750,-34.3
1,2021-11-15 23:00:00.734375,-39.86
1,2021-11-15 23:00:00.750000,-46.84
1,2021-11-15 23:00:00.765625,-55.09
1,2021-11-15 23:00:00.781250,-64.45
1,2021-11-15 23:00:00.796875,-74.6
1,2021-11-15 23:00:00.812500,-84.84
1,2021-11-15 23:00:00.828125,-93.76
1,2021-11-15 23:00:00.843750,-99.38
1,2021-11-15 23:00:00.859375,-99.66
1,2021-11-15 23:00:00.875000,-93.17
1,2021-11-15 23:00:00.890625,-79.74
1,2021-11-15 23:00:00.906250,-60.62
1,2021-11-15 23:00:00.921875,-38.12
1,2021-11-15 23:00:00.937500,-14.8
1,2021-11-15 23:00:00.953125,7.23
1,2021-11-15 23:00:00.968750,26.78
1,2021-11-15 23:00:00.984375,43.62
1,2021-11-15 23:00:01.000000,58.03
1,2021-11-15 23:00:01.015625,70.31
1,2021-11-15 23:00:01.031250,80.47
1,2021-11-15 23:00:01.046875,88.19
1,2021-11-15 23:00:01.062500,93.07
1,2021-11-15 23:00:01.078125,94.94
1,2021-11-15 23:00:01.093750,94.13
1,2021-11-15 23:00:01.109375,91.4
1,2021-11-15 23:00:01.125000,87.7
1,2021-11-15 23:00:01.140625,83.89
1,2021-11-15 23:00:01.156250,80.46
1,2021-11-15 23:00:01.171875,77.54
1,2021-11-15 23:00:01.187500,74.94
1,2021-11-15 23:00:01.203125,72.44
1,2021-11-15 23:00:01.218750,69.86
1,2021-11-15 23:00:01.234375,67.1
1,2021-11-15 23:00:01.250000,64.02
1,2021-11-15 23:00:01.265625,60.47
1,2021-11-15 23:00:01.281250,56.32
1,2021-11-15 23:00:01.296875,51.56
1,2021-11-15 23:00:01.312500,46.33
1,2021-11-15 23:00:01.328125,40.9
1,2021-11-15 23:00:01.343750,35.5
1,2021-11-15 23:00:01.359375,30.13
1,2021-11-15 23:00:01.375000,24.55
1,2021-11-15 23:00:01.390625,18.38
1,2021-11-15 23:00:01.406250,11.37
1,2021-11-15 23:00:01.421875,3.53
1,2021-11-15 23:00:01.437500,-4.82
1,2021-11-15 23:00:01.453125,-13.19
1,2021-11-15 23:00:01.468750,-21.26
1,2021-11-15 23:00:01.484375,-28.93
1,2021-11-15 23:00:01.500000,-36.46
1,2021-11-15 23:00:01.515625,-44.25
1,2021-11-15 23:00:01.531250,-52.72
1,2021-11-15 23:00:01.546875,-62.14
1,2021-11-15 23:00:01.562500,-72.46
1,2021-11-15 23:00:01.578125,-83.09
1,2021-11-15 23:00:01.593750,-92.85
1,2021-11-15 23:00:01.609375,-100.03
1,2021-11-15 23:00:01.625000,-102.66
1,2021-11-15 23:00:01.640625,-99.01
1,2021-11-15 23:00:01.656250,-88.26
1,2021-11-15 23:00:01.671875,-70.8
1,2021-11-15 23:00:01.687500,-48.22
1,2021-11-15 23:00:01.703125,-22.9
1,2021-11-15 23:00:01.718750,2.63
1,2021-11-15 23:00:01.734375,26.43
1,2021-11-15 23:00:01.750000,47.37
1,2021-11-15 23:00:01.765625,65.15
1,2021-11-15 23:00:01.781250,79.98
1,2021-11-15 23:00:01.796875,92.16
1,2021-11-15 23:00:01.812500,101.83
1,2021-11-15 23:00:01.828125,108.81
1,2021-11-15 23:00:01.843750,112.89
1,2021-11-15 23:00:01.859375,113.93
1,2021-11-15 23:00:01.875000,112.14
1,2021-11-15 23:00:01.890625,108.13
1,2021-11-15 23:00:01.906250,102.77
1,2021-11-15 23:00:01.921875,96.92
1,2021-11-15 23:00:01.937500,91.18
1,2021-11-15 23:00:01.953125,85.82
1,2021-11-15 23:00:01.968750,80.85
1,2021-11-15 23:00:01.984375,76.34
1,2021-11-15 23:00:02.000000,72.38
1,2021-11-15 23:00:02.015625,69.25
1,2021-11-15 23:00:02.031250,67.04
1,2021-11-15 23:00:02.046875,65.56
1,2021-11-15 23:00:02.062500,64.16
1,2021-11-15 23:00:02.078125,62.07
1,2021-11-15 23:00:02.093750,58.64
1,2021-11-15 23:00:02.109375,53.68
1,2021-11-15 23:00:02.125000,47.5
1,2021-11-15 23:00:02.140625,40.74
1,2021-11-15 23:00:02.156250,34.08
1,2021-11-15 23:00:02.171875,27.94
1,2021-11-15 23:00:02.187500,22.37
1,2021-11-15 23:00:02.203125,17.09
1,2021-11-15 23:00:02.218750,11.66
1,2021-11-15 23:00:02.234375,5.62
1,2021-11-15 23:00:02.250000,-1.31
1,2021-11-15 23:00:02.265625,-9.2
1,2021-11-15 23:00:02.281250,-17.83
1,2021-11-15 23:00:02.296875,-26.72
1,2021-11-15 23:00:02.312500,-35.26
1,2021-11-15 23:00:02.328125,-42.89
1,2021-11-15 23:00:02.343750,-49.32
1,2021-11-15 23:00:02.359375,-54.72
1,2021-11-15 23:00:02.375000,-59.64
1,2021-11-15 23:00:02.390625,-64.97
1,2021-11-15 23:00:02.406250,-71.56
1,2021-11-15 23:00:02.421875,-79.95
1,2021-11-15 23:00:02.437500,-89.9
1,2021-11-15 23:00:02.453125,-100.3
1,2021-11-15 23:00:02.468750,-109.13
1,2021-11-15 23:00:02.484375,-113.95
1,2021-11-15 23:00:02.500000,-112.57
1,2021-11-15 23:00:02.515625,-103.76
1,2021-11-15 23:00:02.531250,-87.75
1,2021-11-15 23:00:02.546875,-66.18
1,2021-11-15 23:00:02.562500,-41.62
1,2021-11-15 23:00:02.578125,-16.7
1,2021-11-15 23:00:02.593750,6.58
1,2021-11-15 23:00:02.609375,27.25
1,2021-11-15 23:00:02.625000,45.21
1,2021-11-15 23:00:02.640625,60.81
1,2021-11-15 23:00:02.656250,74.36
1,2021-11-15 23:00:02.671875,85.83
1,2021-11-15 23:00:02.687500,94.91
1,2021-11-15 23:00:02.703125,101.22
1,2021-11-15 23:00:02.718750,104.6
1,2021-11-15 23:00:02.734375,105.28
1,2021-11-15 23:00:02.750000,103.84
1,2021-11-15 23:00:02.765625,101.05
1,2021-11-15 23:00:02.781250,97.63
1,2021-11-15 23:00:02.796875,94.1
1,2021-11-15 23:00:02.812500,90.67
1,2021-11-15 23:00:02.828125,87.4
1,2021-11-15 23:00:02.843750,84.24
1,2021-11-15 23:00:02.859375,81.27
1,2021-11-15 23:00:02.875000,78.68
1,2021-11-15 23:00:02.890625,76.73
1,2021-11-15 23:00:02.906250,75.57
1,2021-11-15 23:00:02.921875,75.07
1,2021-11-15 23:00:02.937500,74.8
1,2021-11-15 23:00:02.953125,74.02
1,2021-11-15 23:00:02.968750,72.07
1,2021-11-15 23:00:02.984375,68.5
1,2021-11-15 23:00:03.000000,63.33
1,2021-11-15 23:00:03.015625,57.11
1,2021-11-15 23:00:03.031250,50.63
1,2021-11-15 23:00:03.046875,44.74
1,2021-11-15 23:00:03.062500,39.95
1,2021-11-15 23:00:03.078125,36.3
1,2021-11-15 23:00:03.093750,33.32
1,2021-11-15 23:00:03.109375,30.24
1,2021-11-15 23:00:03.125000,26.2
1,2021-11-15 23:00:03.140625,20.51
1,2021-11-15 23:00:03.156250,12.86
1,2021-11-15 23:00:03.171875,3.26
1,2021-11-15 23:00:03.187500,-7.96
1,2021-11-15 23:00:03.203125,-20.29
1,2021-11-15 23:00:03.218750,-33.19
1,2021-11-15 23:00:03.234375,-46.36
1,2021-11-15 23:00:03.250000,-59.81
1,2021-11-15 23:00:03.265625,-74.19
1,2021-11-15 23:00:03.281250,-90.57
1,2021-11-15 23:00:03.296875,-110.07
1,2021-11-15 23:00:03.312500,-133.26
1,2021-11-15 23:00:03.328125,-159.35
1,2021-11-15 23:00:03.343750,-185.85
1,2021-11-15 23:00:03.359375,-208.81
1,2021-11-15 23:00:03.375000,-223.87
1,2021-11-15 23:00:03.390625,-227.5
1,2021-11-15 23:00:03.406250,-218.34
1,2021-11-15 23:00:03.421875,-197.62
1,2021-11-15 23:00:03.437500,-168.65
1,2021-11-15 23:00:03.453125,-135.7
1,2021-11-15 23:00:03.468750,-102.66
1,2021-11-15 23:00:03.484375,-72.11
1,2021-11-15 23:00:03.500000,-45.2
1,2021-11-15 23:00:03.515625,-21.99
1,2021-11-15 23:00:03.531250,-2.14
1,2021-11-15 23:00:03.546875,14.66
1,2021-11-15 23:00:03.562500,28.48
1,2021-11-15 23:00:03.578125,39.36
1,2021-11-15 23:00:03.593750,47.36
1,2021-11-15 23:00:03.609375,52.8
1,2021-11-15 23:00:03.625000,56.1
1,2021-11-15 23:00:03.640625,57.73
1,2021-11-15 23:00:03.656250,57.99
1,2021-11-15 23:00:03.671875,57.12
1,2021-11-15 23:00:03.687500,55.26
1,2021-11-15 23:00:03.703125,52.69
1,2021-11-15 23:00:03.718750,49.85
1,2021-11-15 23:00:03.734375,47.32
1,2021-11-15 23:00:03.750000,45.77
1,2021-11-15 23:00:03.765625,45.64
1,2021-11-15 23:00:03.781250,46.99
1,2021-11-15 23:00:03.796875,49.36
1,2021-11-15 23:00:03.812500,51.89
1,2021-11-15 23:00:03.828125,53.55
1,2021-11-15 23:00:03.843750,53.57
1,2021-11-15 23:00:03.859375,51.64
1,2021-11-15 23:00:03.875000,47.99
1,2021-11-15 23:00:03.890625,43.36
1,2021-11-15 23:00:03.906250,38.62
1,2021-11-15 23:00:03.921875,34.51
1,2021-11-15 23:00:03.937500,31.34
1,2021-11-15 23:00:03.953125,29.01
1,2021-11-15 23:00:03.968750,26.97
1,2021-11-15 23:00:03.984375,24.52
1,2021-11-15 23:00:04.000000,21.07
1,2021-11-15 23:00:04.015625,16.27
1,2021-11-15 23:00:04.031250,10.26
1,2021-11-15 23:00:04.046875,3.59
1,2021-11-15 23:00:04.062500,-2.98
1,2021-11-15 23:00:04.078125,-8.81
1,2021-11-15 23:00:04.093750,-13.64
1,2021-11-15 23:00:04.109375,-17.83
1,2021-11-15 23:00:04.125000,-22.16
1,2021-11-15 23:00:04.140625,-27.57
1,2021-11-15 23:00:04.156250,-34.83
1,2021-11-15 23:00:04.171875,-44.1
1,2021-11-15 23:00:04.187500,-54.72
1,2021-11-15 23:00:04.203125,-65.17
1,2021-11-15 23:00:04.218750,-73.43
1,2021-11-15 23:00:04.234375,-77.51
1,2021-11-15 23:00:04.250000,-76.07
1,2021-11-15 23:00:04.265625,-68.97
1,2021-11-15 23:00:04.281250,-57.36
1,2021-11-15 23:00:04.296875,-43.87
1,2021-11-15 23:00:04.312500,-31.75
1,2021-11-15 23:00:04.328125,-24.07
1,2021-11-15 23:00:04.343750,-22.6
1,2021-11-15 23:00:04.359375,-27.31
1,2021-11-15 23:00:04.375000,-36.25
1,2021-11-15 23:00:04.390625,-46.33
1,2021-11-15 23:00:04.406250,-54.26
1,2021-11-15 23:00:04.421875,-57.64
1,2021-11-15 23:00:04.437500,-56.23
1,2021-11-15 23:00:04.453125,-51.41
1,2021-11-15 23:00:04.468750,-45.41
1,2021-11-15 23:00:04.484375,-39.98
1,2021-11-15 23:00:04.500000,-35.67
1,2021-11-15 23:00:04.515625,-31.72
1,2021-11-15 23:00:04.531250,-26.48
1,2021-11-15 23:00:04.546875,-17.98
1,2021-11-15 23:00:04.562500,-4.56
1,2021-11-15 23:00:04.578125,13.63
1,2021-11-15 23:00:04.593750,35.61
1,2021-11-15 23:00:04.609375,60.05
1,2021-11-15 23:00:04.625000,86.32
1,2021-11-15 23:00:04.640625,114.35
1,2021-11-15 23:00:04.656250,144.12
1,2021-11-15 23:00:04.671875,174.76
1,2021-11-15 23:00:04.687500,204.46
1,2021-11-15 23:00:04.703125,230.76
1,2021-11-15 23:00:04.718750,249.49
1,2021-11-15 23:00:04.734375,257.04
1,2021-11-15 23:00:04.750000,251.49
1,2021-11-15 23:00:04.765625,233.66
1,2021-11-15 23:00:04.781250,206.05
1,2021-11-15 23:00:04.796875,171.26
1,2021-11-15 23:00:04.812500,130.51
1,2021-11-15 23:00:04.828125,84.03
1,2021-11-15 23:00:04.843750,31.89
1,2021-11-15 23:00:04.859375,-27.14
1,2021-11-15 23:00:04.875000,-93.16
1,2021-11-15 23:00:04.890625,-164.71
1,2021-11-15 23:00:04.906250,-237.92
1,2021-11-15 23:00:04.921875,-307.89
1,2021-11-15 23:00:04.937500,-370.28
1,2021-11-15 23:00:04.953125,-422.88
1,2021-11-15 23:00:04.968750,-464.48
1,2021-11-15 23:00:04.984375,-482.24
1,2021-11-15 23:00:05.000000,-465.49
1,2021-11-15 23:00:05.015625,-410.97
1,2021-11-15 23:00:05.031250,-327.4
1,2021-11-15 23:00:05.046875,-230.89
1,2021-11-15 23:00:05.062500,-136.61
1,2021-11-15 23:00:05.078125,-53.9
1,2021-11-15 23:00:05.093750,12.78
1,2021-11-15 23:00:05.109375,63.12
1,2021-11-15 23:00:05.125000,98.79
1,2021-11-15 23:00:05.140625,120.35
1,2021-11-15 23:00:05.156250,130.38
1,2021-11-15 23:00:05.171875,129.41
1,2021-11-15 23:00:05.187500,118.75
1,2021-11-15 23:00:05.203125,101.39
1,2021-11-15 23:00:05.218750,81.85
1,2021-11-15 23:00:05.234375,64.41
1,2021-11-15 23:00:05.250000,54.28
1,2021-11-15 23:00:05.265625,56.05
1,2021-11-15 23:00:05.281250,70.43
1,2021-11-15 23:00:05.296875,94.57
1,2021-11-15 23:00:05.312500,122.91
1,2021-11-15 23:00:05.328125,148.08
1,2021-11-15 23:00:05.343750,161.32
1,2021-11-15 23:00:05.359375,164.13
1,2021-11-15 23:00:05.375000,156.84
1,2021-11-15 23:00:05.390625,143.44
1,2021-11-15 23:00:05.406250,129.26
1,2021-11-15 23:00:05.421875,117.32
1,2021-11-15 23:00:05.437500,107.69
1,2021-11-15 23:00:05.453125,97.88
1,2021-11-15 23:00:05.468750,85.2
1,2021-11-15 23:00:05.484375,68.58
1,2021-11-15 23:00:05.500000,49.45
1,2021-11-15 23:00:05.515625,29.57
1,2021-11-15 23:00:05.531250,11.55
1,2021-11-15 23:00:05.546875,-2.98
1,2021-11-15 23:00:05.562500,-14.44
1,2021-11-15 23:00:05.578125,-24.62
1,2021-11-15 23:00:05.593750,-35.66
1,2021-11-15 23:00:05.609375,-48.43
1,2021-11-15 23:00:05.625000,-62.16
1,2021-11-15 23:00:05.640625,-74.76
1,2021-11-15 23:00:05.656250,-85.21
1,2021-11-15 23:00:05.671875,-92.99
1,2021-11-15 23:00:05.687500,-98.66
1,2021-11-15 23:00:05.703125,-103.46
1,2021-11-15 23:00:05.718750,-108.23
1,2021-11-15 23:00:05.734375,-112.81
1,2021-11-15 23:00:05.750000,-115.67
1,2021-11-15 23:00:05.765625,-114.5
1,2021-11-15 23:00:05.781250,-106.99
1,2021-11-15 23:00:05.796875,-92.63
1,2021-11-15 23:00:05.812500,-72.3
1,2021-11-15 23:00:05.828125,-48.4
1,2021-11-15 23:00:05.843750,-24.13
1,2021-11-15 23:00:05.859375,-2.47
1,2021-11-15 23:00:05.875000,14.57
1,2021-11-15 23:00:05.890625,26.5
1,2021-11-15 23:00:05.906250,34.1
1,2021-11-15 23:00:05.921875,39.0
1,2021-11-15 23:00:05.937500,42.59
1,2021-11-15 23:00:05.953125,45.93
1,2021-11-15 23:00:05.968750,49.51
1,2021-11-15 23:00:05.984375,53.28
1,2021-11-15 23:00:06.000000,57.02
1,2021-11-15 23:00:06.015625,60.5
1,2021-11-15 23:00:06.031250,63.57
1,2021-11-15 23:00:06.046875,66.11
1,2021-11-15 23:00:06.062500,67.9
1,2021-11-15 23:00:06.078125,68.5
1,2021-11-15 23:00:06.093750,67.45
1,2021-11-15 23:00:06.109375,64.47
1,2021-11-15 23:00:06.125000,59.44
1,2021-11-15 23:00:06.140625,52.47
1,2021-11-15 23:00:06.156250,43.75
1,2021-11-15 23:00:06.171875,33.27
1,2021-11-15 23:00:06.187500,20.76
1,2021-11-15 23:00:06.203125,5.65
1,2021-11-15 23:00:06.218750,-12.51
1,2021-11-15 23:00:06.234375,-33.59
1,2021-11-15 23:00:06.250000,-56.59
1,2021-11-15 23:00:06.265625,-79.67
1,2021-11-15 23:00:06.281250,-100.57
1,2021-11-15 23:00:06.296875,-117.32
1,2021-11-15 23:00:06.312500,-128.81
1,2021-11-15 23:00:06.328125,-135.06
1,2021-11-15 23:00:06.343750,-137.01
1,2021-11-15 23:00:06.359375,-136.06
1,2021-11-15 23:00:06.375000,-133.5
1,2021-11-15 23:00:06.390625,-130.07
1,2021-11-15 23:00:06.406250,-125.93
1,2021-11-15 23:00:06.421875,-120.84
1,2021-11-15 23:00:06.437500,-114.34
1,2021-11-15 23:00:06.453125,-105.95
1,2021-11-15 23:00:06.468750,-95.17
1,2021-11-15 23:00:06.484375,-81.69
1,2021-11-15 23:00:06.500000,-65.39
1,2021-11-15 23:00:06.515625,-46.68
1,2021-11-15 23:00:06.531250,-26.49
1,2021-11-15 23:00:06.546875,-6.17
1,2021-11-15 23:00:06.562500,12.86
1,2021-11-15 23:00:06.578125,29.47
1,2021-11-15 23:00:06.593750,43.22
1,2021-11-15 23:00:06.609375,54.39
1,2021-11-15 23:00:06.625000,63.7
1,2021-11-15 23:00:06.640625,71.87
1,2021-11-15 23:00:06.656250,79.16
1,2021-11-15 23:00:06.671875,85.31
1,2021-11-15 23:00:06.687500,89.66
1,2021-11-15 23:00:06.703125,91.58
1,2021-11-15 23:00:06.718750,90.75
1,2021-11-15 23:00:06.734375,87.38
1,2021-11-15 23:00:06.750000,82.05
1,2021-11-15 23:00:06.765625,75.53
1,2021-11-15 23:00:06.781250,68.57
1,2021-11-15 23:00:06.796875,61.73
1,2021-11-15 23:00:06.812500,55.35
1,2021-11-15 23:00:06.828125,49.53
1,2021-11-15 23:00:06.843750,44.23
1,2021-11-15 23:00:06.859375,39.29
1,2021-11-15 23:00:06.875000,34.64
1,2021-11-15 23:00:06.890625,30.3
1,2021-11-15 23:00:06.906250,26.36
1,2021-11-15 23:00:06.921875,22.98
1,2021-11-15 23:00:06.937500,20.19
1,2021-11-15 23:00:06.953125,17.72
1,2021-11-15 23:00:06.968750,15.09
1,2021-11-15 23:00:06.984375,11.81
1,2021-11-15 23:00:07.000000,7.68
1,2021-11-15 23:00:07.015625,2.99
1,2021-11-15 23:00:07.031250,-1.64
1,2021-11-15 23:00:07.046875,-5.54
1,2021-11-15 23:00:07.062500,-8.4
1,2021-11-15 23:00:07.078125,-10.62
1,2021-11-15 23:00:07.093750,-13.09
1,2021-11-15 23:00:07.109375,-16.93
1,2021-11-15 23:00:07.125000,-23.04
1,2021-11-15 23:00:07.140625,-31.81
1,2021-11-15 23:00:07.156250,-42.87
1,2021-11-15 23:00:07.171875,-55.14
1,2021-11-15 23:00:07.187500,-66.92
1,2021-11-15 23:00:07.203125,-76.01
1,2021-11-15 23:00:07.218750,-80.23
1,2021-11-15 23:00:07.234375,-77.84
1,2021-11-15 23:00:07.250000,-68.22
1,2021-11-15 23:00:07.265625,-52.13
1,2021-11-15 23:00:07.281250,-31.7
1,2021-11-15 23:00:07.296875,-9.72
1,2021-11-15 23:00:07.312500,11.17
1,2021-11-15 23:00:07.328125,29.26
1,2021-11-15 23:00:07.343750,44.03
1,2021-11-15 23:00:07.359375,55.79
1,2021-11-15 23:00:07.375000,65.16
1,2021-11-15 23:00:07.390625,72.44
1,2021-11-15 23:00:07.406250,77.49
1,2021-11-15 23:00:07.421875,79.88
1,2021-11-15 23:00:07.437500,79.4
1,2021-11-15 23:00:07.453125,76.34
1,2021-11-15 23:00:07.468750,71.57
1,2021-11-15 23:00:07.484375,66.23
1,2021-11-15 23:00:07.500000,61.32
1,2021-11-15 23:00:07.515625,57.41
1,2021-11-15 23:00:07.531250,54.51
1,2021-11-15 23:00:07.546875,52.29
1,2021-11-15 23:00:07.562500,50.26
1,2021-11-15 23:00:07.578125,48.07
1,2021-11-15 23:00:07.593750,45.58
1,2021-11-15 23:00:07.609375,42.78
1,2021-11-15 23:00:07.625000,39.7
1,2021-11-15 23:00:07.640625,36.26
1,2021-11-15 23:00:07.656250,32.35
1,2021-11-15 23:00:07.671875,27.81
1,2021-11-15 23:00:07.687500,22.58
1,2021-11-15 23:00:07.703125,16.67
1,2021-11-15 23:00:07.718750,10.19
1,2021-11-15 23:00:07.734375,3.18
1,2021-11-15 23:00:07.750000,-4.31
1,2021-11-15 23:00:07.765625,-12.17
1,2021-11-15 23:00:07.781250,-20.22
1,2021-11-15 23:00:07.796875,-28.2
1,2021-11-15 23:00:07.812500,-35.72
1,2021-11-15 23:00:07.828125,-42.51
1,2021-11-15 23:00:07.843750,-48.51
1,2021-11-15 23:00:07.859375,-54.03
1,2021-11-15 23:00:07.875000,-59.7
1,2021-11-15 23:00:07.890625,-66.31
1,2021-11-15 23:00:07.906250,-74.39
1,2021-11-15 23:00:07.921875,-83.94
1,2021-11-15 23:00:07.937500,-94.14
1,2021-11-15 23:00:07.953125,-103.34
1,2021-11-15 23:00:07.968750,-109.32
1,2021-11-15 23:00:07.984375,-109.89
1,2021-11-15 23:00:08.000000,-103.6
1,2021-11-15 23:00:08.015625,-90.26
1,2021-11-15 23:00:08.031250,-71.08
1,2021-11-15 23:00:08.046875,-48.34
1,2021-11-15 23:00:08.062500,-24.57
1,2021-11-15 23:00:08.078125,-1.9
1,2021-11-15 23:00:08.093750,18.49
1,2021-11-15 23:00:08.109375,36.37
1,2021-11-15 23:00:08.125000,52.08
1,2021-11-15 23:00:08.140625,66.03
1,2021-11-15 23:00:08.156250,78.33
1,2021-11-15 23:00:08.171875,88.62
1,2021-11-15 23:00:08.187500,96.3
1,2021-11-15 23:00:08.203125,100.81
1,2021-11-15 23:00:08.218750,101.9
1,2021-11-15 23:00:08.234375,99.81
1,2021-11-15 23:00:08.250000,95.24
1,2021-11-15 23:00:08.265625,89.2
1,2021-11-15 23:00:08.281250,82.75
1,2021-11-15 23:00:08.296875,76.72
1,2021-11-15 23:00:08.312500,71.41
1,2021-11-15 23:00:08.328125,66.61
1,2021-11-15 23:00:08.343750,61.68
1,2021-11-15 23:00:08.359375,56.02
1,2021-11-15 23:00:08.375000,49.28
1,2021-11-15 23:00:08.390625,41.64
1,2021-11-15 23:00:08.406250,33.63
1,2021-11-15 23:00:08.421875,25.82
1,2021-11-15 23:00:08.437500,18.58
1,2021-11-15 23:00:08.453125,11.86
1,2021-11-15 23:00:08.468750,5.44
1,2021-11-15 23:00:08.484375,-0.8
1,2021-11-15 23:00:08.500000,-6.61
1,2021-11-15 23:00:08.515625,-11.46
1,2021-11-15 23:00:08.531250,-14.69
1,2021-11-15 23:00:08.546875,-16.02
1,2021-11-15 23:00:08.562500,-15.8
1,2021-11-15 23:00:08.578125,-15.01
1,2021-11-15 23:00:08.593750,-14.99
1,2021-11-15 23:00:08.609375,-16.85
1,2021-11-15 23:00:08.625000,-21.05
1,2021-11-15 23:00:08.640625,-27.14
1,2021-11-15 23:00:08.656250,-34.02
1,2021-11-15 23:00:08.671875,-40.36
1,2021-11-15 23:00:08.687500,-45.18
1,2021-11-15 23:00:08.703125,-48.18
1,2021-11-15 23:00:08.718750,-49.76
1,2021-11-15 23:00:08.734375,-50.76
1,2021-11-15 23:00:08.750000,-52.09
1,2021-11-15 23:00:08.765625,-54.55
1,2021-11-15 23:00:08.781250,-58.73
1,2021-11-15 23:00:08.796875,-65.01
1,2021-11-15 23:00:08.812500,-73.38
1,2021-11-15 23:00:08.828125,-83.1
1,2021-11-15 23:00:08.843750,-92.53
1,2021-11-15 23:00:08.859375,-99.21
1,2021-11-15 23:00:08.875000,-100.63
1,2021-11-15 23:00:08.890625,-95.17
1,2021-11-15 23:00:08.906250,-82.84
1,2021-11-15 23:00:08.921875,-65.31
1,2021-11-15 23:00:08.937500,-45.25
1,2021-11-15 23:00:08.953125,-25.19
1,2021-11-15 23:00:08.968750,-6.75
1,2021-11-15 23:00:08.984375,9.56
1,2021-11-15 23:00:09.000000,24.05
1,2021-11-15 23:00:09.015625,37.09
1,2021-11-15 23:00:09.031250,48.82
1,2021-11-15 23:00:09.046875,59.09
1,2021-11-15 23:00:09.062500,67.8
1,2021-11-15 23:00:09.078125,75.04
1,2021-11-15 23:00:09.093750,81.08
1,2021-11-15 23:00:09.109375,86.09
1,2021-11-15 23:00:09.125000,89.97
1,2021-11-15 23:00:09.140625,92.41
1,2021-11-15 23:00:09.156250,93.09
1,2021-11-15 23:00:09.171875,92.07
1,2021-11-15 23:00:09.187500,89.83
1,2021-11-15 23:00:09.203125,87.15
1,2021-11-15 23:00:09.218750,84.75
1,2021-11-15 23:00:09.234375,82.98
1,2021-11-15 23:00:09.250000,81.7
1,2021-11-15 23:00:09.265625,80.24
1,2021-11-15 23:00:09.281250,77.84
1,2021-11-15 23:00:09.296875,73.79
1,2021-11-15 23:00:09.312500,67.74
1,2021-11-15 23:00:09.328125,59.82
1,2021-11-15 23:00:09.343750,50.54
1,2021-11-15 23:00:09.359375,40.73
1,2021-11-15 23:00:09.375000,31.22
1,2021-11-15 23:00:09.390625,22.65
1,2021-11-15 23:00:09.406250,15.3
1,2021-11-15 23:00:09.421875,9.09
1,2021-11-15 23:00:09.437500,3.66
1,2021-11-15 23:00:09.453125,-1.41
1,2021-11-15 23:00:09.468750,-6.45
1,2021-11-15 23:00:09.484375,-11.64
1,2021-11-15 23:00:09.500000,-17.04
1,2021-11-15 23:00:09.515625,-22.66
1,2021-11-15 23:00:09.531250,-28.54
1,2021-11-15 23:00:09.546875,-34.78
1,2021-11-15 23:00:09.562500,-41.48
1,2021-11-15 23:00:09.578125,-48.68
1,2021-11-15 23:00:09.593750,-56.32
1,2021-11-15 23:00:09.609375,-64.23
1,2021-11-15 23:00:09.625000,-72.17
1,2021-11-15 23:00:09.640625,-79.89
1,2021-11-15 23:00:09.656250,-87.2
1,2021-11-15 23:00:09.671875,-93.97
1,2021-11-15 23:00:09.687500,-100.36
1,2021-11-15 23:00:09.703125,-106.73
1,2021-11-15 23:00:09.718750,-113.68
1,2021-11-15 23:00:09.734375,-121.81
1,2021-11-15 23:00:09.750000,-131.45
1,2021-11-15 23:00:09.765625,-142.26
1,2021-11-15 23:00:09.781250,-152.97
1,2021-11-15 23:00:09.796875,-161.44
1,2021-11-15 23:00:09.812500,-165.1
1,2021-11-15 23:00:09.828125,-161.79
1,2021-11-15 23:00:09.843750,-150.52
1,2021-11-15 23:00:09.859375,-131.9
1,2021-11-15 23:00:09.875000,-108.05
1,2021-11-15 23:00:09.890625,-81.95
1,2021-11-15 23:00:09.906250,-56.47
1,2021-11-15 23:00:09.921875,-33.62
1,2021-11-15 23:00:09.937500,-14.23
1,2021-11-15 23:00:09.953125,1.86
1,2021-11-15 23:00:09.968750,15.31
1,2021-11-15 23:00:09.984375,26.87
1,2021-11-15 23:00:10.000000,37.05
1,2021-11-15 23:00:10.015625,46.07
1,2021-11-15 23:00:10.031250,53.93
1,2021-11-15 23:00:10.046875,60.37
1,2021-11-15 23:00:10.062500,65.03
1,2021-11-15 23:00:10.078125,67.45
1,2021-11-15 23:00:10.093750,67.44
1,2021-11-15 23:00:10.109375,65.15
1,2021-11-15 23:00:10.125000,61.26
1,2021-11-15 23:00:10.140625,56.7
1,2021-11-15 23:00:10.156250,52.38
1,2021-11-15 23:00:10.171875,48.84
1,2021-11-15 23:00:10.187500,46.28
1,2021-11-15 23:00:10.203125,44.67
1,2021-11-15 23:00:10.218750,43.97
1,2021-11-15 23:00:10.234375,44.18
1,2021-11-15 23:00:10.250000,45.28
1,2021-11-15 23:00:10.265625,46.98
1,2021-11-15 23:00:10.281250,48.71
1,2021-11-15 23:00:10.296875,49.67
1,2021-11-15 23:00:10.312500,49.05
1,2021-11-15 23:00:10.328125,46.24
1,2021-11-15 23:00:10.343750,40.79
1,2021-11-15 23:00:10.359375,32.36
1,2021-11-15 23:00:10.375000,20.73
1,2021-11-15 23:00:10.390625,5.84
1,2021-11-15 23:00:10.406250,-12.11
1,2021-11-15 23:00:10.421875,-32.54
1,2021-11-15 23:00:10.437500,-54.65
1,2021-11-15 23:00:10.453125,-77.72
1,2021-11-15 23:00:10.468750,-101.37
1,2021-11-15 23:00:10.484375,-125.58
1,2021-11-15 23:00:10.500000,-150.4
1,2021-11-15 23:00:10.515625,-175.64
1,2021-11-15 23:00:10.531250,-200.6
1,2021-11-15 23:00:10.546875,-224.04
1,2021-11-15 23:00:10.562500,-244.3
1,2021-11-15 23:00:10.578125,-259.36
1,2021-11-15 23:00:10.593750,-266.89
1,2021-11-15 23:00:10.609375,-264.56
1,2021-11-15 23:00:10.625000,-250.74
1,2021-11-15 23:00:10.640625,-225.45
1,2021-11-15 23:00:10.656250,-190.94
1,2021-11-15 23:00:10.671875,-151.54
1,2021-11-15 23:00:10.687500,-112.21
1,2021-11-15 23:00:10.703125,-76.63
1,2021-11-15 23:00:10.718750,-45.69
1,2021-11-15 23:00:10.734375,-17.41
1,2021-11-15 23:00:10.750000,11.68
1,2021-11-15 23:00:10.765625,44.2
1,2021-11-15 23:00:10.781250,80.36
1,2021-11-15 23:00:10.796875,117.73
1,2021-11-15 23:00:10.812500,152.65
1,2021-11-15 23:00:10.828125,182.18
1,2021-11-15 23:00:10.843750,205.42
1,2021-11-15 23:00:10.859375,223.38
1,2021-11-15 23:00:10.875000,237.93
1,2021-11-15 23:00:10.890625,250.46
1,2021-11-15 23:00:10.906250,261.11
1,2021-11-15 23:00:10.921875,268.95
1,2021-11-15 23:00:10.937500,272.82
1,2021-11-15 23:00:10.953125,272.01
1,2021-11-15 23:00:10.968750,266.67
1,2021-11-15 23:00:10.984375,257.59
1,2021-11-15 23:00:11.000000,245.68
1,2021-11-15 23:00:11.015625,231.6
1,2021-11-15 23:00:11.031250,215.51
1,2021-11-15 23:00:11.046875,197.37
1,2021-11-15 23:00:11.062500,177.26
1,2021-11-15 23:00:11.078125,155.75
1,2021-11-15 23:00:11.093750,133.87
1,2021-11-15 23:00:11.109375,112.9
1,2021-11-15 23:00:11.125000,93.85
1,2021-11-15 23:00:11.140625,77.09
1,2021-11-15 23:00:11.156250,62.22
1,2021-11-15 23:00:11.171875,48.41
1,2021-11-15 23:00:11.187500,34.89
1,2021-11-15 23:00:11.203125,21.51
1,2021-11-15 23:00:11.218750,8.74
1,2021-11-15 23:00:11.234375,-2.77
1,2021-11-15 23:00:11.250000,-12.7
1,2021-11-15 23:00:11.265625,-21.55
1,2021-11-15 23:00:11.281250,-30.53
1,2021-11-15 23:00:11.296875,-40.98
1,2021-11-15 23:00:11.312500,-53.66
1,2021-11-15 23:00:11.328125,-68.27
1,2021-11-15 23:00:11.343750,-83.55
1,2021-11-15 23:00:11.359375,-97.81
1,2021-11-15 23:00:11.375000,-109.75
1,2021-11-15 23:00:11.390625,-118.84
1,2021-11-15 23:00:11.406250,-125.34
1,2021-11-15 23:00:11.421875,-129.86
1,2021-11-15 23:00:11.437500,-132.92
1,2021-11-15 23:00:11.453125,-134.81
1,2021-11-15 23:00:11.468750,-135.71
1,2021-11-15 23:00:11.484375,-136.0
1,2021-11-15 23:00:11.500000,-136.17
1,2021-11-15 23:00:11.515625,-136.59
1,2021-11-15 23:00:11.531250,-136.92
1,2021-11-15 23:00:11.546875,-135.92
1,2021-11-15 23:00:11.562500,-131.82
1,2021-11-15 23:00:11.578125,-123.05
1,2021-11-15 23:00:11.593750,-109.06
1,2021-11-15 23:00:11.609375,-90.75
1,2021-11-15 23:00:11.625000,-70.23
1,2021-11-15 23:00:11.640625,-50.06
1,2021-11-15 23:00:11.656250,-32.43
1,2021-11-15 23:00:11.671875,-18.49
1,2021-11-15 23:00:11.687500,-8.17
1,2021-11-15 23:00:11.703125,-0.55
1,2021-11-15 23:00:11.718750,5.68
1,2021-11-15 23:00:11.734375,11.68
1,2021-11-15 23:00:11.750000,18.1
1,2021-11-15 23:00:11.765625,25.09
1,2021-11-15 23:00:11.781250,32.44
1,2021-11-15 23:00:11.796875,39.76
1,2021-11-15 23:00:11.812500,46.65
1,2021-11-15 23:00:11.828125,52.79
1,2021-11-15 23:00:11.843750,57.95
1,2021-11-15 23:00:11.859375,62.18
1,2021-11-15 23:00:11.875000,65.68
1,2021-11-15 23:00:11.890625,68.79
1,2021-11-15 23:00:11.906250,71.88
1,2021-11-15 23:00:11.921875,75.12
1,2021-11-15 23:00:11.937500,78.43
1,2021-11-15 23:00:11.953125,81.42
1,2021-11-15 23:00:11.968750,83.56
1,2021-11-15 23:00:11.984375,84.35
1,2021-11-15 23:00:12.000000,83.54
1,2021-11-15 23:00:12.015625,81.26
1,2021-11-15 23:00:12.031250,78.07
1,2021-11-15 23:00:12.046875,74.93
1,2021-11-15 23:00:12.062500,72.89
1,2021-11-15 23:00:12.078125,72.72
1,2021-11-15 23:00:12.093750,74.41
1,2021-11-15 23:00:12.109375,77.07
1,2021-11-15 23:00:12.125000,78.97
1,2021-11-15 23:00:12.140625,78.27
1,2021-11-15 23:00:12.156250,73.78
1,2021-11-15 23:00:12.171875,65.54
1,2021-11-15 23:00:12.187500,54.75
1,2021-11-15 23:00:12.203125,43.24
1,2021-11-15 23:00:12.218750,32.64
1,2021-11-15 23:00:12.234375,23.69
1,2021-11-15 23:00:12.250000,16.34
1,2021-11-15 23:00:12.265625,9.99
1,2021-11-15 23:00:12.281250,4.13
1,2021-11-15 23:00:12.296875,-1.28
1,2021-11-15 23:00:12.312500,-5.68
1,2021-11-15 23:00:12.328125,-8.0
1,2021-11-15 23:00:12.343750,-6.85
1,2021-11-15 23:00:12.359375,-0.69
1,2021-11-15 23:00:12.375000,11.76
1,2021-11-15 23:00:12.390625,31.1
1,2021-11-15 23:00:12.406250,56.74
1,2021-11-15 23:00:12.421875,86.68
1,2021-11-15 23:00:12.437500,117.88
1,2021-11-15 23:00:12.453125,147.03
1,2021-11-15 23:00:12.468750,171.56
1,2021-11-15 23:00:12.484375,190.27
1,2021-11-15 23:00:12.500000,203.47
1,2021-11-15 23:00:12.515625,212.32
1,2021-11-15 23:00:12.531250,218.11
1,2021-11-15 23:00:12.546875,221.66
1,2021-11-15 23:00:12.562500,223.16
1,2021-11-15 23:00:12.578125,222.5
1,2021-11-15 23:00:12.593750,219.65
1,2021-11-15 23:00:12.609375,214.95
1,2021-11-15 23:00:12.625000,209.06
1,2021-11-15 23:00:12.640625,202.72
1,2021-11-15 23:00:12.656250,196.44
1,2021-11-15 23:00:12.671875,190.33
1,2021-11-15 23:00:12.687500,183.86
1,2021-11-15 23:00:12.703125,175.9
1,2021-11-15 23:00:12.718750,164.98
1,2021-11-15 23:00:12.734375,149.56
1,2021-11-15 23:00:12.750000,128.54
1,2021-11-15 23:00:12.765625,101.52
1,2021-11-15 23:00:12.781250,69.1
1,2021-11-15 23:00:12.796875,32.65
1,2021-11-15 23:00:12.812500,-5.92
1,2021-11-15 23:00:12.828125,-44.61
1,2021-11-15 23:00:12.843750,-81.79
1,2021-11-15 23:00:12.859375,-116.3
1,2021-11-15 23:00:12.875000,-147.51
1,2021-11-15 23:00:12.890625,-175.24
1,2021-11-15 23:00:12.906250,-199.6
1,2021-11-15 23:00:12.921875,-220.93
1,2021-11-15 23:00:12.937500,-239.72
1,2021-11-15 23:00:12.953125,-256.54
1,2021-11-15 23:00:12.968750,-271.94
1,2021-11-15 23:00:12.984375,-286.36
1,2021-11-15 23:00:13.000000,-299.96
1,2021-11-15 23:00:13.015625,-312.72
1,2021-11-15 23:00:13.031250,-324.55
1,2021-11-15 23:00:13.046875,-335.44
1,2021-11-15 23:00:13.062500,-345.63
1,2021-11-15 23:00:13.078125,-355.55
1,2021-11-15 23:00:13.093750,-365.49
1,2021-11-15 23:00:13.109375,-375.12
1,2021-11-15 23:00:13.125000,-383.14
1,2021-11-15 23:00:13.140625,-387.23
1,2021-11-15 23:00:13.156250,-384.66
1,2021-11-15 23:00:13.171875,-373.01
1,2021-11-15 23:00:13.187500,-351.16
1,2021-11-15 23:00:13.203125,-319.77
1,2021-11-15 23:00:13.218750,-281.11
1,2021-11-15 23:00:13.234375,-238.46
1,2021-11-15 23:00:13.250000,-195.06
1,2021-11-15 23:00:13.265625,-153.48
1,2021-11-15 23:00:13.281250,-115.11
1,2021-11-15 23:00:13.296875,-80.4
1,2021-11-15 23:00:13.312500,-49.25
1,2021-11-15 23:00:13.328125,-21.42
1,2021-11-15 23:00:13.343750,3.15
1,2021-11-15 23:00:13.359375,24.29
1,2021-11-15 23:00:13.375000,41.72
1,2021-11-15 23:00:13.390625,55.28
1,2021-11-15 23:00:13.406250,65.08
1,2021-11-15 23:00:13.421875,71.46
1,2021-11-15 23:00:13.437500,74.95
1,2021-11-15 23:00:13.453125,76.13
1,2021-11-15 23:00:13.468750,75.62
1,2021-11-15 23:00:13.484375,74.03
1,2021-11-15 23:00:13.500000,71.87
1,2021-11-15 23:00:13.515625,69.53
1,2021-11-15 23:00:13.531250,67.2
1,2021-11-15 23:00:13.546875,64.82
1,2021-11-15 23:00:13.562500,62.09
1,2021-11-15 23:00:13.578125,58.66
1,2021-11-15 23:00:13.593750,54.28
1,2021-11-15 23:00:13.609375,48.96
1,2021-11-15 23:00:13.625000,42.96
1,2021-11-15 23:00:13.640625,36.49
1,2021-11-15 23:00:13.656250,29.61
1,2021-11-15 23:00:13.671875,22.09
1,2021-11-15 23:00:13.687500,13.62
1,2021-11-15 23:00:13.703125,4.09
1,2021-11-15 23:00:13.718750,-6.21
1,2021-11-15 23:00:13.734375,-16.63
1,2021-11-15 23:00:13.750000,-26.37
1,2021-11-15 23:00:13.765625,-34.83
1,2021-11-15 23:00:13.781250,-41.82
1,2021-11-15 23:00:13.796875,-47.55
1,2021-11-15 23:00:13.812500,-52.56
1,2021-11-15 23:00:13.828125,-57.49
1,2021-11-15 23:00:13.843750,-62.99
1,2021-11-15 23:00:13.859375,-69.57
1,2021-11-15 23:00:13.875000,-77.57
1,2021-11-15 23:00:13.890625,-86.88
1,2021-11-15 23:00:13.906250,-96.77
1,2021-11-15 23:00:13.921875,-105.83
1,2021-11-15 23:00:13.937500,-112.15
1,2021-11-15 23:00:13.953125,-113.79
1,2021-11-15 23:00:13.968750,-109.36
1,2021-11-15 23:00:13.984375,-98.5
1,2021-11-15 23:00:14.000000,-81.98
1,2021-11-15 23:00:14.015625,-61.46
1,2021-11-15 23:00:14.031250,-38.91
1,2021-11-15 23:00:14.046875,-16.08
1,2021-11-15 23:00:14.062500,5.91
1,2021-11-15 23:00:14.078125,26.62
1,2021-11-15 23:00:14.093750,45.97
1,2021-11-15 23:00:14.109375,63.92
1,2021-11-15 23:00:14.125000,80.12
1,2021-11-15 23:00:14.140625,94.0
1,2021-11-15 23:00:14.156250,104.88
1,2021-11-15 23:00:14.171875,112.33
1,2021-11-15 23:00:14.187500,116.38
1,2021-11-15 23:00:14.203125,117.49
1,2021-11-15 23:00:14.218750,116.43
1,2021-11-15 23:00:14.234375,113.94
1,2021-11-15 23:00:14.250000,110.61
1,2021-11-15 23:00:14.265625,106.83
1,2021-11-15 23:00:14.281250,102.91
1,2021-11-15 23:00:14.296875,99.18
1,2021-11-15 23:00:14.312500,95.93
1,2021-11-15 23:00:14.328125,93.4
1,2021-11-15 23:00:14.343750,91.48
1,2021-11-15 23:00:14.359375,89.75
1,2021-11-15 23:00:14.375000,87.51
1,2021-11-15 23:00:14.390625,84.1
1,2021-11-15 23:00:14.406250,79.18
1,2021-11-15 23:00:14.421875,72.87
1,2021-11-15 23:00:14.437500,65.73
1,2021-11-15 23:00:14.453125,58.46
1,2021-11-15 23:00:14.468750,51.61
1,2021-11-15 23:00:14.484375,45.24
1,2021-11-15 23:00:14.500000,39.05
1,2021-11-15 23:00:14.515625,32.46
1,2021-11-15 23:00:14.531250,24.99
1,2021-11-15 23:00:14.546875,16.5
1,2021-11-15 23:00:14.562500,7.26
1,2021-11-15 23:00:14.578125,-2.2
1,2021-11-15 23:00:14.593750,-11.33
1,2021-11-15 23:00:14.609375,-19.78
1,2021-11-15 23:00:14.625000,-27.55
1,2021-11-15 23:00:14.640625,-34.89
1,2021-11-15 23:00:14.656250,-42.33
1,2021-11-15 23:00:14.671875,-50.39
1,2021-11-15 23:00:14.687500,-59.54
1,2021-11-15 23:00:14.703125,-69.89
1,2021-11-15 23:00:14.718750,-81.0
1,2021-11-15 23:00:14.734375,-91.73
1,2021-11-15 23:00:14.750000,-100.22
1,2021-11-15 23:00:14.765625,-104.33
1,2021-11-15 23:00:14.781250,-102.22
1,2021-11-15 23:00:14.796875,-93.0
1,2021-11-15 23:00:14.812500,-77.18
1,2021-11-15 23:00:14.828125,-56.49
1,2021-11-15 23:00:14.843750,-33.41
1,2021-11-15 23:00:14.859375,-10.32
1,2021-11-15 23:00:14.875000,11.07
1,2021-11-15 23:00:14.890625,30.0
1,2021-11-15 23:00:14.906250,46.44
1,2021-11-15 23:00:14.921875,60.66
1,2021-11-15 23:00:14.937500,72.83
1,2021-11-15 23:00:14.953125,82.77
1,2021-11-15 23:00:14.968750,90.08
1,2021-11-15 23:00:14.984375,94.39
1,2021-11-15 23:00:15.000000,95.66
1,2021-11-15 23:00:15.015625,94.28
1,2021-11-15 23:00:15.031250,91.02
1,2021-11-15 23:00:15.046875,86.83
1,2021-11-15 23:00:15.062500,82.59
1,2021-11-15 23:00:15.078125,78.86
1,2021-11-15 23:00:15.093750,75.83
1,2021-11-15 23:00:15.109375,73.35
1,2021-11-15 23:00:15.125000,71.1
1,2021-11-15 23:00:15.140625,68.76
1,2021-11-15 23:00:15.156250,66.16
1,2021-11-15 23:00:15.171875,63.27
1,2021-11-15 23:00:15.187500,60.14
1,2021-11-15 23:00:15.203125,56.78
1,2021-11-15 23:00:15.218750,53.13
1,2021-11-15 23:00:15.234375,49.04
1,2021-11-15 23:00:15.250000,44.37
1,2021-11-15 23:00:15.265625,39.07
1,2021-11-15 23:00:15.281250,33.16
1,2021-11-15 23:00:15.296875,26.8
1,2021-11-15 23:00:15.312500,20.18
1,2021-11-15 23:00:15.328125,13.45
1,2021-11-15 23:00:15.343750,6.65
1,2021-11-15 23:00:15.359375,-0.22
1,2021-11-15 23:00:15.375000,-7.2
1,2021-11-15 23:00:15.390625,-14.26
1,2021-11-15 23:00:15.406250,-21.29
1,2021-11-15 23:00:15.421875,-28.23
1,2021-11-15 23:00:15.437500,-35.16
1,2021-11-15 23:00:15.453125,-42.42
1,2021-11-15 23:00:15.468750,-50.5
1,2021-11-15 23:00:15.484375,-59.78
1,2021-11-15 23:00:15.500000,-70.18
1,2021-11-15 23:00:15.515625,-80.82
1,2021-11-15 23:00:15.531250,-90.03
1,2021-11-15 23:00:15.546875,-95.66
1,2021-11-15 23:00:15.562500,-95.72
1,2021-11-15 23:00:15.578125,-89.09
1,2021-11-15 23:00:15.593750,-75.87
1,2021-11-15 23:00:15.609375,-57.43
1,2021-11-15 23:00:15.625000,-35.97
1,2021-11-15 23:00:15.640625,-13.91
1,2021-11-15 23:00:15.656250,6.8
1,2021-11-15 23:00:15.671875,24.94
1,2021-11-15 23:00:15.687500,40.12
1,2021-11-15 23:00:15.703125,52.48
1,2021-11-15 23:00:15.718750,62.35
1,2021-11-15 23:00:15.734375,69.92
1,2021-11-15 23:00:15.750000,75.22
1,2021-11-15 23:00:15.765625,78.17
1,2021-11-15 23:00:15.781250,78.74
1,2021-11-15 23:00:15.796875,77.18
1,2021-11-15 23:00:15.812500,74.02
1,2021-11-15 23:00:15.828125,69.95
1,2021-11-15 23:00:15.843750,65.65
1,2021-11-15 23:00:15.859375,61.65
1,2021-11-15 23:00:15.875000,58.21
1,2021-11-15 23:00:15.890625,55.34
1,2021-11-15 23:00:15.906250,52.94
1,2021-11-15 23:00:15.921875,50.78
1,2021-11-15 23:00:15.937500,48.62
1,2021-11-15 23:00:15.953125,46.23
1,2021-11-15 23:00:15.968750,43.35
1,2021-11-15 23:00:15.984375,39.79
1,2021-11-15 23:00:16.000000,35.48
1,2021-11-15 23:00:16.015625,30.48
1,2021-11-15 23:00:16.031250,24.95
1,2021-11-15 23:00:16.046875,19.13
1,2021-11-15 23:00:16.062500,13.13
1,2021-11-15 23:00:16.078125,6.94
1,2021-11-15 23:00:16.093750,0.46
1,2021-11-15 23:00:16.109375,-6.45
1,2021-11-15 23:00:16.125000,-13.79
1,2021-11-15 23:00:16.140625,-21.43
1,2021-11-15 23:00:16.156250,-29.12
1,2021-11-15 23:00:16.171875,-36.6
1,2021-11-15 23:00:16.187500,-43.62
1,2021-11-15 23:00:16.203125,-50.21
1,2021-11-15 23:00:16.218750,-56.55
1,2021-11-15 23:00:16.234375,-63.1
1,2021-11-15 23:00:16.250000,-70.43
1,2021-11-15 23:00:16.265625,-79.03
1,2021-11-15 23:00:16.281250,-89.03
1,2021-11-15 23:00:16.296875,-99.88
1,2021-11-15 23:00:16.312500,-110.2
1,2021-11-15 23:00:16.328125,-117.92
1,2021-11-15 23:00:16.343750,-120.76
1,2021-11-15 23:00:16.359375,-116.92
1,2021-11-15 23:00:16.375000,-105.71
1,2021-11-15 23:00:16.390625,-87.92
1,2021-11-15 23:00:16.406250,-65.45
1,2021-11-15 23:00:16.421875,-40.87
1,2021-11-15 23:00:16.437500,-16.59
1,2021-11-15 23:00:16.453125,5.76
1,2021-11-15 23:00:16.468750,25.43
1,2021-11-15 23:00:16.484375,42.38
1,2021-11-15 23:00:16.500000,56.92
1,2021-11-15 23:00:16.515625,69.31
1,2021-11-15 23:00:16.531250,79.52
1,2021-11-15 23:00:16.546875,87.38
1,2021-11-15 23:00:16.562500,92.74
1,2021-11-15 23:00:16.578125,95.55
1,2021-11-15 23:00:16.593750,95.98
1,2021-11-15 23:00:16.609375,94.4
1,2021-11-15 23:00:16.625000,91.14
1,2021-11-15 23:00:16.640625,86.61
1,2021-11-15 23:00:16.656250,81.23
1,2021-11-15 23:00:16.671875,75.46
1,2021-11-15 23:00:16.687500,69.84
1,2021-11-15 23:00:16.703125,64.91
1,2021-11-15 23:00:16.718750,61.05
1,2021-11-15 23:00:16.734375,58.31
1,2021-11-15 23:00:16.750000,56.42
1,2021-11-15 23:00:16.765625,54.75
1,2021-11-15 23:00:16.781250,52.62
1,2021-11-15 23:00:16.796875,49.45
1,2021-11-15 23:00:16.812500,44.96
1,2021-11-15 23:00:16.828125,39.21
1,2021-11-15 23:00:16.843750,32.58
1,2021-11-15 23:00:16.859375,25.61
1,2021-11-15 23:00:16.875000,18.76
1,2021-11-15 23:00:16.890625,12.31
1,2021-11-15 23:00:16.906250,6.22
1,2021-11-15 23:00:16.921875,0.2
1,2021-11-15 23:00:16.937500,-6.17
1,2021-11-15 23:00:16.953125,-13.23
1,2021-11-15 23:00:16.968750,-21.07
1,2021-11-15 23:00:16.984375,-29.47
1,2021-11-15 23:00:17.000000,-37.95
1,2021-11-15 23:00:17.015625,-46.06
1,2021-11-15 23:00:17.031250,-53.44
1,2021-11-15 23:00:17.046875,-60.08
1,2021-11-15 23:00:17.062500,-66.21
1,2021-11-15 23:00:17.078125,-72.34
1,2021-11-15 23:00:17.093750,-79.09
1,2021-11-15 23:00:17.109375,-86.94
1,2021-11-15 23:00:17.125000,-96.04
1,2021-11-15 23:00:17.140625,-106.0
1,2021-11-15 23:00:17.156250,-115.71
1,2021-11-15 23:00:17.171875,-123.35
1,2021-11-15 23:00:17.187500,-126.79
1,2021-11-15 23:00:17.203125,-124.11
1,2021-11-15 23:00:17.218750,-114.28
1,2021-11-15 23:00:17.234375,-97.66
1,2021-11-15 23:00:17.250000,-75.87
1,2021-11-15 23:00:17.265625,-51.42
1,2021-11-15 23:00:17.281250,-26.87
1,2021-11-15 23:00:17.296875,-4.16
1,2021-11-15 23:00:17.312500,15.76
1,2021-11-15 23:00:17.328125,32.78
1,2021-11-15 23:00:17.343750,47.28
1,2021-11-15 23:00:17.359375,59.68
1,2021-11-15 23:00:17.375000,70.12
1,2021-11-15 23:00:17.390625,78.5
1,2021-11-15 23:00:17.406250,84.6
1,2021-11-15 23:00:17.421875,88.32
1,2021-11-15 23:00:17.437500,89.72
1,2021-11-15 23:00:17.453125,89.11
1,2021-11-15 23:00:17.468750,86.9
1,2021-11-15 23:00:17.484375,83.56
1,2021-11-15 23:00:17.500000,79.51
1,2021-11-15 23:00:17.515625,75.15
1,2021-11-15 23:00:17.531250,70.8
1,2021-11-15 23:00:17.546875,66.74
1,2021-11-15 23:00:17.562500,63.17
1,2021-11-15 23:00:17.578125,60.18
1,2021-11-15 23:00:17.593750,57.75
1,2021-11-15 23:00:17.609375,55.69
1,2021-11-15 23:00:17.625000,53.68
1,2021-11-15 23:00:17.640625,51.34
1,2021-11-15 23:00:17.656250,48.28
1,2021-11-15 23:00:17.671875,44.2
1,2021-11-15 23:00:17.687500,39.0
1,2021-11-15 23:00:17.703125,32.85
1,2021-11-15 23:00:17.718750,26.18
1,2021-11-15 23:00:17.734375,19.58
1,2021-11-15 23:00:17.750000,13.48
1,2021-11-15 23:00:17.765625,8.03
1,2021-11-15 23:00:17.781250,2.98
1,2021-11-15 23:00:17.796875,-2.21
1,2021-11-15 23:00:17.812500,-8.18
1,2021-11-15 23:00:17.828125,-15.28
1,2021-11-15 23:00:17.843750,-23.51
1,2021-11-15 23:00:17.859375,-32.43
1,2021-11-15 23:00:17.875000,-41.36
1,2021-11-15 23:00:17.890625,-49.7
1,2021-11-15 23:00:17.906250,-57.01
1,2021-11-15 23:00:17.921875,-63.23
1,2021-11-15 23:00:17.937500,-68.62
1,2021-11-15 23:00:17.953125,-73.76
1,2021-11-15 23:00:17.968750,-79.37
1,2021-11-15 23:00:17.984375,-86.11
1,2021-11-15 23:00:18.000000,-94.35
1,2021-11-15 23:00:18.015625,-103.73
1,2021-11-15 23:00:18.031250,-113.05
1,2021-11-15 23:00:18.046875,-120.3
1,2021-11-15 23:00:18.062500,-123.11
1,2021-11-15 23:00:18.078125,-119.49
1,2021-11-15 23:00:18.093750,-108.5
1,2021-11-15 23:00:18.109375,-90.72
1,2021-11-15 23:00:18.125000,-68.11
1,2021-11-15 23:00:18.140625,-43.38
1,2021-11-15 23:00:18.156250,-19.18
1,2021-11-15 23:00:18.171875,2.65
1,2021-11-15 23:00:18.187500,21.36
1,2021-11-15 23:00:18.203125,37.07
1,2021-11-15 23:00:18.218750,50.33
1,2021-11-15 23:00:18.234375,61.67
1,2021-11-15 23:00:18.250000,71.23
1,2021-11-15 23:00:18.265625,78.87
1,2021-11-15 23:00:18.281250,84.23
1,2021-11-15 23:00:18.296875,87.18
1,2021-11-15 23:00:18.312500,87.77
1,2021-11-15 23:00:18.328125,86.39
1,2021-11-15 23:00:18.343750,83.61
1,2021-11-15 23:00:18.359375,79.96
1,2021-11-15 23:00:18.375000,75.87
1,2021-11-15 23:00:18.390625,71.59
1,2021-11-15 23:00:18.406250,67.27
1,2021-11-15 23:00:18.421875,63.04
1,2021-11-15 23:00:18.437500,59.11
1,2021-11-15 23:00:18.453125,55.71
1,2021-11-15 23:00:18.468750,52.98
1,2021-11-15 23:00:18.484375,50.85
1,2021-11-15 23:00:18.500000,48.97
1,2021-11-15 23:00:18.515625,46.78
1,2021-11-15 23:00:18.531250,43.64
1,2021-11-15 23:00:18.546875,39.1
1,2021-11-15 23:00:18.562500,33.01
1,2021-11-15 23:00:18.578125,25.67
1,2021-11-15 23:00:18.593750,17.73
1,2021-11-15 23:00:18.609375,10.03
1,2021-11-15 23:00:18.625000,3.23
1,2021-11-15 23:00:18.640625,-2.36
1,2021-11-15 23:00:18.656250,-6.93
